time,x,y,theta,vx,vy,omega,throttle,steering,throttle_filt,steering_filt
0.035047551999999996,0.16217617237322934,0.05270806698809168,-0.04664204503760416,0.9813905731183761,-0.06429406130400726,-0.7188363983342048,0.2027302533388137,-0.1671714186668396,0.2027302533388137,-0.1671714186668396
0.039919744,0.17027257729221665,0.05169238137458067,-0.048164130523867144,1.0032750363823792,-0.07760731763695632,-0.8780140396972599,0.2027302533388137,-0.1457893848419189,0.2027302533388137,-0.1671714186668396
0.04490176,0.17458087151414362,0.05134082285961373,-0.05067541832182698,1.005344747838037,-0.0770578210634602,-0.8731524062752007,0.2027302533388137,-0.1276572048664093,0.2027302533388137,-0.16587388530476233
0.049811072,0.17875525515670562,0.050511278414637865,-0.05217171974495649,1.0073374192035063,-0.07097982902175502,-0.8079238947108368,0.2027302533388137,-0.1135539561510086,0.2027302533388137,-0.163007263348752
0.054799488,0.18306437000363154,0.050150655936437485,-0.05871722714820571,1.0166580498193167,-0.06993707080373356,-0.8040234879651481,0.2027302533388137,-0.0938284769654274,0.2027302533388137,-0.15875019154811223
0.05992768,0.18718800248310022,0.049513523514194926,-0.06576315842255198,1.0258874743484536,-0.07446773859947912,-0.8204588642731178,0.2027302533388137,-0.0777348205447197,0.2027302533388137,-0.15278762437332735
0.06490918400000001,0.19564268891070297,0.048615680708079374,-0.07618682074204841,1.0294155013118165,-0.060650638663768124,-0.8529082584055808,0.2027302533388137,-0.0657948106527328,0.2027302533388137,-0.14568287491285617
0.069926272,0.19993974908047515,0.04773225827813641,-0.07698875526358506,1.0334037156415685,-0.0625255334257298,-0.8291306837701538,0.2027302533388137,-0.0492150597274303,0.2027302533388137,-0.1377257935112246
0.07490828799999999,0.20434242613701398,0.04703369978846277,-0.0811195386175001,1.042074437817029,-0.06370708459575186,-0.7504569690910525,0.2027302533388137,-0.0364436767995357,0.2027302533388137,-0.12894975215632432
0.07989286400000001,0.2085774140026647,0.04656936339179521,-0.08419595759667686,1.052059386621722,-0.07343872956736557,-0.6811646543702546,0.2027302533388137,-0.0268911216408014,0.2027302533388137,-0.11956812399498691
0.084917888,0.2128478257537183,0.04599434809945291,-0.08411987725937387,1.0601220132021585,-0.07380083095587425,-0.632686482210233,0.2027302533388137,-0.0143229085952043,0.2027302533388137,-0.10984813227656184
0.089902976,0.22159296661747283,0.04458858030888054,-0.090122876640649,1.072035815824297,-0.0639482276122011,-0.49976005218787023,0.2027302533388137,-0.004525285679847,0.2027302533388137,-0.09991351051550615
0.09477516799999999,0.2261876957688492,0.043698955867523266,-0.08872795663136834,1.0848765778423533,-0.07474892094810405,-0.4812583581858059,0.2027302533388137,-0.0,0.2027302533388137,-0.0901010317896654
0.09977971199999999,0.23065465189290835,0.04316328721754821,-0.09095292125038945,1.0940676943408556,-0.08031282738013718,-0.4895935696671279,0.2027302533388137,-0.0,0.2027302533388137,-0.08031540427923722
0.10478016,0.23514377155883295,0.042563734117624145,-0.095967838456394,1.1021251459863886,-0.07969645200678925,-0.6332967780980556,0.2027302533388137,-0.0,0.2027302533388137,-0.07126207642312618
0.10977216,0.23972209490301924,0.041695885029533544,-0.09829838330365881,1.108702895423803,-0.07573292814586245,-0.8238359727400408,0.2027302533388137,-0.0,0.2027302533388137,-0.06308716107115646
0.114775168,0.248853749054729,0.040012163860639674,-0.09969400871838463,1.1177556932426402,-0.08925035204526102,-1.0939303194821468,0.2027302533388137,-0.0,0.2027302533388137,-0.05576168194469905
0.119916672,0.25351558361511595,0.03918539789338964,-0.10252999363553705,1.1215213765162766,-0.09682023717150123,-1.249329387101271,0.2027302533388137,-0.0,0.2027302533388137,-0.04907275698761867
0.124890496,0.258193764559763,0.03835855320136443,-0.10766551502571264,1.1242552843402158,-0.09215534504008194,-1.3280909843088504,0.2027302533388137,-0.0,0.2027302533388137,-0.04336204291464897
0.129881216,0.26277879404695687,0.03757435770800919,-0.11870318483469688,1.1281590624572466,-0.07034739147284078,-1.3415066554679627,0.2027302533388137,-0.0,0.2027302533388137,-0.03829167631305518
0.13495232000000001,0.26737995644794516,0.03648275940548004,-0.12783495877080941,1.131252179082374,-0.05112023178465163,-1.333009480886159,0.2027302533388137,-0.0,0.2027302533388137,-0.03373868285579559
0.139961216,0.2767128498339578,0.03475813348605933,-0.1425914542558413,1.1377028073166537,-0.04901934714683233,-1.3842299674019911,0.2027302533388137,-0.0,0.2027302533388137,-0.02977467085267826
0.14495219199999998,0.28135391207513716,0.03430268959173232,-0.15161147466696523,1.1403146977332583,-0.050218405286865976,-1.3612167117368512,0.2027302533388137,-0.0,0.2027302533388137,-0.026288191251158697
0.149900672,0.28608662703228005,0.033524339426797375,-0.15705090827260015,1.1447244134584693,-0.04865694296225196,-1.304942596085471,0.2027302533388137,-0.0,0.2027302533388137,-0.02323584014509613
0.154879104,0.2907982154860366,0.03249920570610012,-0.16018647778203565,1.1576295447395992,-0.05357585075246448,-1.2195219519033955,0.2027302533388137,-0.0,0.2027302533388137,-0.020521415692436443
0.159892864,0.295460277983491,0.03117211145060832,-0.1595975757042476,1.1652004680375467,-0.06745752684827303,-1.1839965967378439,0.2027302533388137,-0.0,0.2027302533388137,-0.018107005618455085
0.16490688,0.3048646416251344,0.028755123376758087,-0.16613131330037234,1.1674232314954187,-0.07942448336077118,-1.282562882953539,0.2027302533388137,-0.0,0.2027302533388137,-0.015976514651621466
0.16986816,0.30999962290966004,0.027609574383622076,-0.16884210889617712,1.1692999224975247,-0.06184992852463929,-1.229582993362737,0.2027302533388137,-0.0,0.2027302533388137,-0.014116454833237443
0.174871168,0.3145478206551192,0.02676440119851238,-0.17714571873001894,1.1747802621804877,-0.041475171409792226,-1.2466295192891357,0.2027302533388137,-0.0,0.2027302533388137,-0.012459121190995886
0.179966592,0.31927181935647725,0.025466453692022443,-0.18118196659589447,1.177547508229276,-0.040937162723884306,-1.3322626890229041,0.2027302533388137,-0.0,0.2027302533388137,-0.010969341984467565
0.18487104,0.32400905421630394,0.024726229174121643,-0.1917230256366551,1.1749129007917418,-0.04401099123440315,-1.4650745781221113,0.2027302533388137,-0.0,0.2027302533388137,-0.00970685922777116
0.189867648,0.3336191490135177,0.02273073291327537,-0.2081488605372357,1.1872930298217323,-0.05442577771039151,-1.5725223968682513,0.2027302533388137,-0.0,0.2027302533388137,-0.008568684231691458
0.194902144,0.33839211362991056,0.021240978035231402,-0.2132252081229531,1.1946554313790057,-0.05513468731515645,-1.4583584324941077,0.2027302533388137,-0.0,0.2027302533388137,-0.00755634672720145
0.199895936,0.3432635903925307,0.01954379899250879,-0.21828676928976165,1.2022313998031988,-0.06761953267585266,-1.350975412604259,0.2027302533388137,-0.0,0.2027302533388137,-0.006670828308829273
0.204870528,0.3480471671763186,0.018029793239463476,-0.22362188206177525,1.208005161213344,-0.07741452853140961,-1.2733929764780496,0.2027302533388137,-0.0,0.2027302533388137,-0.0058920881956084975
0.209873024,0.35288033839578925,0.016782461332494145,-0.23325461418328608,1.2112964511032913,-0.06871841166105418,-1.1280207218300367,0.2027302533388137,-0.0,0.2027302533388137,-0.0052003984649123145
0.2148768,0.3626736339301041,0.014094660872556732,-0.24020571321260498,1.2146829462252784,-0.04551327045136572,-0.9358300725975526,0.2027302533388137,-0.0,0.2027302533388137,-0.004589752020832254
0.219870336,0.3675393812394024,0.012532098271803823,-0.23946489760406386,1.2226266762669842,-0.053056311774398554,-0.8289899664653718,0.2027302533388137,-0.0,0.2027302533388137,-0.004051912433819005
0.224870784,0.37229120387210063,0.011206955941708827,-0.24270215262163486,1.232789321178245,-0.0668112628244255,-0.7218760567434261,0.2027302533388137,-0.0,0.2027302533388137,-0.003576441111521846
0.229888896,0.377209554421974,0.009836546026503815,-0.2469300516028845,1.2424218196887307,-0.07738480215093657,-0.6218042261521349,0.2027302533388137,-0.0,0.2027302533388137,-0.00315528142688557
0.234874752,0.3822915628790191,0.008301433254890597,-0.25181626733270424,1.2478662301550043,-0.08253137093655159,-0.5921360871643749,0.2027302533388137,-0.0,0.2027302533388137,-0.002786105650948161
0.239888512,0.39239197579057156,0.004648454633956323,-0.2531576311446546,1.2605661231886913,-0.09276218698458379,-0.714440519144688,0.2027302533388137,-0.0,0.2027302533388137,-0.0024582999615124584
0.244871808,0.397284181477963,0.0028741656658575043,-0.25434451880236786,1.2589068174801596,-0.09289132167410563,-0.7836738290460427,0.2027302533388137,-0.0,0.2027302533388137,-0.0021708204331931757
0.249951872,0.4022255397177215,0.000953010850705962,-0.2537352357848661,1.2579027550346864,-0.09075310966944897,-0.7676380206153331,0.2027302533388137,-0.0,0.2027302533388137,-0.0019120298617738497
0.254870912,0.4071789674683973,-0.000590781104013856,-0.2601395958693784,1.2564914040848847,-0.07287850864457388,-0.6396546146167092,0.2027302533388137,-0.0,0.2027302533388137,-0.0016913156033831578
0.259915904,0.4121555895514052,-0.0020215538357211695,-0.2663093912922303,1.2594257742209156,-0.0630445802020356,-0.5152085553916931,0.2027302533388137,-0.0,0.2027302533388137,-0.0014910803680275825
0.26497267199999996,0.4221218651826193,-0.005091899945857596,-0.2740900554619845,1.270174336591191,-0.07413094515780523,-0.6180779250981949,0.2027302533388137,-0.0,0.2027302533388137,-0.0013141389732161351
0.269775232,0.42719246402371586,-0.006632203037918465,-0.2799135785241429,1.2707235094387865,-0.07970802790101171,-0.6830134508994896,0.2027302533388137,-0.0,0.2027302533388137,-0.001166034062094783
0.27486604800000003,0.43239238621042736,-0.00872745858078487,-0.2800852641177265,1.2752783967254164,-0.08658062680285586,-0.703033960543078,0.2027302533388137,-0.0,0.2027302533388137,-0.00102673313628987
0.27976512,0.4373600339883435,-0.010901585842663757,-0.27729583063716046,1.2837535579717003,-0.09798751650488596,-0.6505353203042099,0.2027302533388137,-0.0,0.2027302533388137,-0.0009086937981058735
0.284866944,0.44220187430398117,-0.01295410837916911,-0.2757482590904914,1.2910702765432098,-0.1102558783917963,-0.5972112524008395,0.2027302533388137,-0.0,0.2027302533388137,-0.0007999014371566675
0.289864064,0.4522190801325686,-0.016396279435671762,-0.28352325789789745,1.2971079911655916,-0.09781986537843491,-0.4648656013627878,0.2027302533388137,-0.0,0.2027302533388137,-0.0007060995402594359
0.29476416000000005,0.45741903466076483,-0.018255855635702308,-0.2871661591583301,1.300649775306571,-0.09448864454395178,-0.535663144008843,0.2027302533388137,-0.0,0.2027302533388137,-0.0006249051765938574
0.29988415999999996,0.46261158243571576,-0.020162007537304304,-0.29115330924777894,1.3052625072391573,-0.09603851062991793,-0.7022396723460996,0.2027302533388137,-0.0,0.2027302533388137,-0.0005498225514735353
0.30487104,0.46786565120404666,-0.02214069739347269,-0.2949277131872705,1.306394555623867,-0.09119171791334223,-0.8469062526470922,0.2027302533388137,-0.0,0.2027302533388137,-0.0004854787327828743
0.30978675200000005,0.4729341326255968,-0.024133037156283968,-0.29719664060078976,1.3035045182069078,-0.08781815147685702,-0.8857600119465917,0.2027302533388137,-0.0,0.2027302533388137,-0.0004294756407904687
0.314882176,0.48278734428438635,-0.028284794805556516,-0.30066289413356273,1.2988470145176443,-0.08848196923380593,-0.8219376562606748,0.2027302533388137,-0.0,0.2027302533388137,-0.0003781216463336671
0.31989644799999994,0.4878897882962111,-0.02995793274307071,-0.3084378948569224,1.3003221701737615,-0.084294093446272,-0.8118109677575341,0.2027302533388137,-0.0,0.2027302533388137,-0.00033362832829315664
0.32487897600000004,0.4929520326946777,-0.031859165514726714,-0.31331470266915407,1.30343788577541,-0.08101662232932834,-0.8648491784913486,0.2027302533388137,-0.0,0.2027302533388137,-0.0002946190394914964
0.32987097600000004,0.4980740871054846,-0.03379215795097049,-0.31736223322347534,1.3062277901986301,-0.08282272406388345,-0.9525326212037324,0.2027302533388137,-0.0,0.2027302533388137,-0.00026010540057329145
0.33492364799999996,0.5032422501965397,-0.03587903500451875,-0.3202165060838924,1.3100954483825136,-0.09111935496979073,-1.0532073468561962,0.2027302533388137,-0.0,0.2027302533388137,-0.00022926458592849224
0.33988236800000005,0.5133032273863906,-0.04045546798844696,-0.3240323279824313,1.3242517432870635,-0.09360325772274432,-1.0098651702221622,0.2027302533388137,-0.0,0.2027302533388137,-0.0002025860540585527
0.344881024,0.5181988518291585,-0.04269564872766841,-0.32870288800239145,1.32611695615811,-0.10234609435921418,-0.9407721951011522,0.2027302533388137,-0.0,0.2027302533388137,-0.0001788221297233013
0.349914496,0.5233427784393155,-0.04464782020873557,-0.3366559439918797,1.3292758556560393,-0.1030759212521912,-0.9528972171695642,0.2027302533388137,-0.0,0.2027302533388137,-0.0001576996799927944
0.354875264,0.5287126343526,-0.046539090224008886,-0.3427836620484115,1.336569951531613,-0.0918653011873221,-0.9830661952786596,0.2027302533388137,-0.0,0.2027302533388137,-0.00013934126875055097
0.35986624,0.5338027863265911,-0.0488833250461265,-0.3469100038038633,1.3444881605672783,-0.07333304919710415,-0.9988355386209267,0.2027302533388137,-0.0,0.2027302533388137,-0.00012302125173101035
0.36487206400000005,0.5439803093705308,-0.05386456270792109,-0.35177946641986857,1.350332674239162,-0.06684882858757132,-0.8578173967705861,0.2027302533388137,0.0028278396930545,0.2027302533388137,-0.00010856981309889291
0.36976806399999995,0.5492901327393801,-0.055949737789027565,-0.356210893191216,1.3552875370245072,-0.07427389351402103,-0.778319722078595,0.2027302533388137,0.0079971905797719,0.2027302533388137,7.71695644034596e-05
0.374875776,0.5545139900770133,-0.05788953867744957,-0.3618149881493995,1.3593780112263536,-0.0683680753352707,-0.7087631561316685,0.2027302533388137,0.013243013061583,0.2027302533388137,0.0006543683593940046
0.37987417599999995,0.5596785491511768,-0.05980270842478231,-0.3658778822065152,1.35948768781789,-0.05400247763000233,-0.6502883144071482,0.2027302533388137,0.0191817376762628,0.2027302533388137,0.00168447787480942
0.38487872,0.5649786798020897,-0.06218634034816054,-0.36789909062909487,1.3620074399427236,-0.04852570794927267,-0.6290945376186874,0.2027302533388137,0.0250412691384553,0.2027302533388137,0.0032043159554113257
0.38987967999999995,0.5752341230676106,-0.06722612808449607,-0.36598592544774977,1.37720286748244,-0.08244547684152126,-0.604183415322397,0.2027302533388137,0.0306669864803552,0.2027302533388137,0.005196387832995848
0.39493184000000003,0.5804747056966755,-0.06936270713136528,-0.37071841638469216,1.377181576058983,-0.08949026607967583,-0.5726413389919411,0.2027302533388137,0.0365206710994243,0.2027302533388137,0.007635155608293077
0.399884672,0.5859111758967125,-0.07166748215268048,-0.3736906972712424,1.376066949823875,-0.0906303230195432,-0.575381749396971,0.2027302533388137,0.0414470881223678,0.2027302533388137,0.010415260738512896
0.404876672,0.5911610167928152,-0.07419607047731502,-0.37561244643439373,1.3854654970321485,-0.08975639653887157,-0.5804112951616648,0.2027302533388137,0.0492150597274303,0.2027302533388137,0.013503135448954543
0.40986457600000004,0.5963271105860858,-0.0767373686468101,-0.3788568330857487,1.3957312780274147,-0.08850170216854317,-0.6533722715034613,0.2027302533388137,0.0565899051725864,0.2027302533388137,0.017001463891794466
0.41487219200000003,0.6065836547714114,-0.08205599544708149,-0.3820049685503797,1.3905224463744277,-0.09448013724940688,-0.6727561275834198,0.2027302533388137,0.063035063445568,0.2027302533388137,0.020926740803277978
0.41986598399999997,0.6120358181017747,-0.08455527865315014,-0.3885127766933909,1.3892627457783804,-0.08469790179320678,-0.5886836795500984,0.1998767256736755,0.0740644186735153,0.20178025843041733,0.025170824199995334
0.42487513600000004,0.6174082288286138,-0.08694331184282542,-0.3919234581895097,1.3955224410022178,-0.08281091953278794,-0.5964556853987948,0.1998767256736755,0.0843026861548423,0.2011445861027174,0.029987310766076063
0.429859456,0.6225718615227029,-0.08936443380217682,-0.3950579196879165,1.3998209826085748,-0.08193844734764999,-0.6212554022206574,0.1970413476228714,0.0929151177406311,0.19978112919472635,0.03534991709399688
0.43478438399999997,0.6277130057858078,-0.09185101332604863,-0.39811589608499354,1.3911932457927618,-0.08063792991377891,-0.6646790770890944,0.1970413476228714,0.1070435270667076,0.1988815807295855,0.04107705315943577
0.439892096,0.6381283068754539,-0.09716384811832607,-0.3982894546447744,1.3917919642810432,-0.08316961788249944,-0.7126989614023431,0.1970413476228714,0.1198984161019325,0.19825495534812143,0.04772256570429962
0.44487488,0.6432997686967991,-0.09995193823152913,-0.40008254317295133,1.3961379403509624,-0.08557155506150975,-0.6650905469371662,0.1942239105701446,0.1304385364055633,0.19691590031992234,0.05491596017995571
0.44986943999999995,0.6483021232765795,-0.10245680383614074,-0.40389576639973956,1.3973154028424937,-0.08981558701512854,-0.6636032323436244,0.1914242058992386,0.1472068578004837,0.19508732716753766,0.06260207820636383
0.454883712,0.6537466437756857,-0.1048598472217347,-0.40752182184390495,1.4036642920154712,-0.09142132093882732,-0.7213331096132459,0.1914242058992386,0.1625876575708389,0.19386280140698856,0.07108664585837794
0.45989158399999996,0.6591845659402599,-0.10740769979602235,-0.41363237522259855,1.4053897231943275,-0.08081789819829632,-0.7415959055506832,0.1886420100927353,0.1782147735357284,0.19211979776428909,0.08031353523598407
0.46490201600000003,0.6693435676970327,-0.11293018392029652,-0.41979340700586043,1.4062026560457324,-0.06534466825361163,-0.830685933517135,0.1886420100927353,0.194577544927597,0.19095811652170516,0.09025519101021195
0.46990451200000005,0.6747498403536861,-0.11593577226066241,-0.4216093052716987,1.4035633111601087,-0.0748446497669225,-0.8461419686707038,0.1858771294355392,0.2123578488826751,0.1892636086833987,0.10087577122805282
0.474892416,0.6798505081584629,-0.11844802556428292,-0.4262022131783345,1.4044969637660043,-0.07211135626347037,-0.7854962423141576,0.1858771294355392,0.2304228693246841,0.188137513124311,0.11219544989989744
0.479891584,0.6850695814978622,-0.12075616438935462,-0.4330939878358002,1.4059982557124366,-0.057871587827594655,-0.707384406629667,0.1858771294355392,0.2497183978557586,0.187384177270669,0.12425988666450957
0.48489024000000003,0.6903322797953423,-0.123474001972201,-0.43308631586020496,1.3994179590203601,-0.055875678542295866,-0.7243329760456653,0.1858771294355392,0.2695438265800476,0.1868819630237784,0.13707475583409134
0.48986969599999997,0.7006936178684474,-0.12895192207874642,-0.4397782170166096,1.4024488162799298,-0.05752833206273193,-0.8638314983661147,0.1831293255090713,0.2903813123703003,0.18563622346454953,0.15058546922965702
0.494870912,0.7058431552878354,-0.1315893435244727,-0.4417634316608723,1.4111520996209375,-0.049301236473484986,-0.8475482546438026,0.1831293255090713,0.3113439083099365,0.1848003875868625,0.16491573570264903
0.499883392,0.710978767218971,-0.13449444507391428,-0.44165837609327063,1.4112032140849757,-0.04330490612174514,-0.7786195183210044,0.1803984194993972,0.3324478268623352,0.18332940245359197,0.18001528530514413
0.504879232,0.7159776473599885,-0.1372999432603507,-0.4443397280631043,1.4090848911349656,-0.04038750866877126,-0.7220776976268009,0.1803984194993972,0.3540184795856476,0.18235322099479967,0.19574632460696165
0.509869952,0.7215382546013386,-0.13976994606819307,-0.45174476839071964,1.4099868509337707,-0.03741727889357237,-0.7247567107772388,0.1803984194993972,0.3749911785125732,0.18170282986685735,0.21210102818995297
