time,x,y,theta,vx,vy,omega,throttle,steering,throttle_filt,steering_filt
0.038060928,0.08015755422600303,-0.1916868641752974,0.06986327686409055,0.7356540980692022,-0.022124174626601475,0.15570595180220337,0.143820121884346,-0.2551579475402832,0.143820121884346,-0.2551579475402832
0.04307904,0.08326568732860481,-0.1915496010280557,0.06891425802099427,0.7413809512059353,-0.017378416582625643,0.207416667572278,0.143820121884346,-0.2551579475402832,0.143820121884346,-0.2551579475402832
0.048043647999999994,0.08934310148202958,-0.1914873162773274,0.07010397169153393,0.7403498123274287,-0.025003412989509515,0.2790445554728089,0.143820121884346,-0.2551579475402832,0.143820121884346,-0.2551579475402832
0.053014144,0.0924985609784463,-0.19135087710906248,0.07230553787846006,0.7382940740443629,-0.03438014122102372,0.256030297312503,0.143820121884346,-0.2551579475402832,0.143820121884346,-0.2551579475402832
0.058048383999999995,0.09567564990989462,-0.1911022456558875,0.07570334939067624,0.7399021347354626,-0.0357937969151942,0.24755667751052066,0.143820121884346,-0.2551579475402832,0.143820121884346,-0.2551579475402832
0.063015296,0.09870727640518062,-0.1910406704588222,0.07878639317836811,0.7439278471301034,-0.033959451052403014,0.28208162423702726,0.143820121884346,-0.2551579475402832,0.143820121884346,-0.2551579475402832
0.068049792,0.10170684159430624,-0.19102650591148956,0.07833190000907209,0.7442413742603802,-0.03461020028839161,0.22032610573971345,0.143820121884346,-0.2551579475402832,0.143820121884346,-0.2551579475402832
0.073024128,0.10793564956086997,-0.1909580360598392,0.0839854621841214,0.7398349080273019,-0.04472112045155398,0.2095761519156196,0.143820121884346,-0.2551579475402832,0.143820121884346,-0.2551579475402832
0.07803199999999999,0.11111543155762771,-0.19077832134499437,0.08221343588282437,0.7428579772896005,-0.036081076025799984,0.18337128298296881,0.143820121884346,-0.2551579475402832,0.143820121884346,-0.2551579475402832
0.083042688,0.11416545194986508,-0.19067534941973416,0.08216731005370015,0.7486101485949048,-0.02944443944788964,0.12743892083565045,0.143820121884346,-0.2551579475402832,0.143820121884346,-0.2551579475402832
0.088045696,0.1172936907437928,-0.19068040143395143,0.08246802637211559,0.7535260014231033,-0.027037759790540548,0.13746293476355154,0.143820121884346,-0.2538351714611053,0.143820121884346,-0.2551579475402832
0.093036416,0.12031288928589479,-0.19044173853545857,0.08034950187692758,0.7506899272585965,-0.02419543439265489,0.12761623686334625,0.143820121884346,-0.2541834115982055,0.143820121884346,-0.25507537783328993
0.098034816,0.12672430924138414,-0.19008863859022262,0.08166189333763896,0.7502435962649935,-0.0203304235906628,0.028425285218247196,0.143820121884346,-0.2537654936313629,0.143820121884346,-0.254985558202778
0.103039872,0.1299634452290313,-0.18991934263345692,0.08315607412998904,0.7560066403948883,-0.018386890534056954,0.0587699375455265,0.143820121884346,-0.2533474564552307,0.143820121884346,-0.2548721364394526
0.10797248,0.13284977313434415,-0.18970912722916747,0.08301542947990193,0.7616659682003392,-0.018081173655299307,0.08595268486984659,0.143820121884346,-0.2528595626354217,0.143820121884346,-0.25473198335962743
0.113044352,0.13596174089329613,-0.189578558347402,0.08670349033947389,0.7593704601498269,-0.020076318268763774,0.09062272848521968,0.143820121884346,-0.2520924508571625,0.143820121884346,-0.2545544080961386
0.118046848,0.13921239493894977,-0.1893892904691184,0.08561887154470593,0.7536369930199338,-0.019559820766018473,0.1126405614943446,0.143820121884346,-0.251324862241745,0.143820121884346,-0.25432731767614575
0.123049856,0.14570756357476208,-0.18883441256078756,0.084002319111665,0.763728751374102,-0.01911251290880695,0.01852397034336192,0.143820121884346,-0.2504869699478149,0.143820121884346,-0.254045832718857
0.12804416000000002,0.1487092498789765,-0.18874956630031095,0.08576556930468726,0.7659663857037211,-0.02298008896807353,-0.0761250821572976,0.143820121884346,-0.2493689060211181,0.143820121884346,-0.25370770173138635
0.132983936,0.1518770910480894,-0.1886358367903121,0.08674865506013418,0.7645119152388518,-0.024547675703220702,-0.11572755190645877,0.143820121884346,-0.2483197748661041,0.143820121884346,-0.25330194220271307
0.137973888,0.15502170535197327,-0.1884129176539911,0.08437580467105299,0.7618504229870721,-0.0211695289065713,-0.10657463048304985,0.143820121884346,-0.2474798411130905,0.143820121884346,-0.25282325400231115
0.143043968,0.15827719055563763,-0.1882477535984875,0.08625790015530654,0.7667058644394198,-0.02223199323967825,-0.021335322643860056,0.143820121884346,-0.2459385246038437,0.143820121884346,-0.25228414748683253
0.147970944,0.16466773220149444,-0.18786248543178546,0.08035559394561709,0.7732785729898908,-0.025614175077342604,-0.04650251594181898,0.143820121884346,-0.2440443187952041,0.143820121884346,-0.2516756046429722
0.15330496,0.1678585129999947,-0.1875957998969876,0.07883720322295318,0.7734240273306741,-0.02632357924846399,-0.13296451030177878,0.143820121884346,-0.242779940366745,0.143820121884346,-0.25089739587635
0.158342784,0.17122852436864125,-0.18742713424076934,0.08027279305480839,0.7708313118256277,-0.021782997488702566,-0.2053040373367727,0.143820121884346,-0.2408810257911682,0.143820121884346,-0.25007445539431333
0.163041152,0.17438393487827147,-0.18749502192843312,0.08227955518444574,0.7680265330004401,-0.02427006150530788,-0.28530806020075034,0.143820121884346,-0.2384858131408691,0.143820121884346,-0.2492169004351207
0.168217984,0.17759703516698375,-0.18742228043781617,0.0861851093609225,0.7676673571645627,-0.033364810373588294,-0.3465450418322667,0.143820121884346,-0.2360155880451202,0.143820121884346,-0.24814447309540952
0.173058176,0.18392938712652165,-0.18692097846495337,0.08175901905886462,0.767725288710744,-0.019896439935563646,-0.2522435559058879,0.143820121884346,-0.2326910942792892,0.143820121884346,-0.24698962319297194
0.177955456,0.18703336819879982,-0.186898614409216,0.07856641768546524,0.7687754234808438,-0.010028611071953259,-0.24266948456416618,0.143820121884346,-0.2280797809362411,0.143820121884346,-0.24564062480690174
0.183034752,0.19027448672906633,-0.1866440923699493,0.07373819078173227,0.76857091769936,-0.001592764750903578,-0.2776461451778613,0.143820121884346,-0.224521979689598,0.143820121884346,-0.243956300329691
0.187955072,0.19354278945673212,-0.18629588245187242,0.07074173909169268,0.7731026693864907,-0.0008378082600587603,-0.29403162332927524,0.143820121884346,-0.2194542586803436,0.143820121884346,-0.24208257686895884
0.193033344,0.19679892518862035,-0.18612559547043908,0.06990909827798752,0.7781105953285269,-0.0010876342504596399,-0.2657960419002474,0.143820121884346,-0.2133634835481643,0.143820121884346,-0.23985512490416494
0.19796672,0.20317943298937557,-0.18557278798618265,0.06815144725117506,0.7851477967979602,-0.004606817905536268,-0.2006608662482798,0.143820121884346,-0.2065260857343673,0.143820121884346,-0.23732102892829285
0.203038592,0.20653729471740762,-0.18542528331647817,0.06871376124587325,0.7863739419175095,-0.0033270607448233186,-0.05979504898136912,0.143820121884346,-0.1974099427461624,0.143820121884346,-0.23430177959421625
0.207960704,0.20970888999425885,-0.18528701448795998,0.06838771928350695,0.7882578049751237,-0.0021350274412564206,0.07579666340041118,0.143820121884346,-0.1911575049161911,0.143820121884346,-0.23081273914191622
0.213039744,0.21308076705613377,-0.18516258497630897,0.07312421471854869,0.7888201929102194,-0.013223698089104141,0.11732399702529768,0.143820121884346,-0.1821737885475158,0.143820121884346,-0.226819712690182
0.218037376,0.2164488601979366,-0.18492655605214703,0.07244195922319108,0.7869464020027109,-0.01645689387190638,0.13934551608724643,0.143820121884346,-0.1727014333009719,0.143820121884346,-0.22239839812501408
0.223036544,0.22294686187835205,-0.18442390606220793,0.07153158183673192,0.7926159068115912,-0.009476435612694624,0.15125146688227192,0.143820121884346,-0.1614029854536056,0.143820121884346,-0.21746887294921963
0.22804544,0.2261154959652198,-0.1844116286528228,0.07529195692634438,0.789671516823702,-0.010838167162561273,0.1854041124110501,0.143820121884346,-0.1530904322862625,0.143820121884346,-0.2119212870536754
0.23303744,0.22945580124632195,-0.18422136201005282,0.07613649355202945,0.7862696134453763,-0.01405166842822289,0.19450966773871253,0.143820121884346,-0.1420548111200332,0.143820121884346,-0.20596821348304212
0.2380448,0.23279768284096233,-0.183932754154445,0.07526952761551797,0.7882496166644625,-0.01851997057990284,0.15072864345360665,0.143820121884346,-0.1308892518281936,0.143820121884346,-0.19950593095496486
0.243038336,0.23614883815702478,-0.1837637592654545,0.07533235442101471,0.7944856674444226,-0.018014429827420377,0.20620585842798125,0.143820121884346,-0.1187665686011314,0.143820121884346,-0.19256327528408287
0.248041856,0.2425520726339119,-0.18330333029383594,0.07426493444543159,0.790389071871971,-0.019413453011481677,0.19230664632901195,0.143820121884346,-0.1062097549438476,0.143820121884346,-0.18507940737239004
0.25304,0.24599675165284995,-0.1832791499421882,0.07983231637012178,0.7860924184121765,-0.026129739994297307,0.11147075866151757,0.143820121884346,-0.0932196006178855,0.143820121884346,-0.17706739912547376
0.258087296,0.2493579060545083,-0.18311628295342722,0.0795097650744978,0.7864341017908042,-0.03024787035744387,0.05811125054820026,0.143820121884346,-0.080332726240158,0.143820121884346,-0.16844027328517505
0.262965888,0.25252916633583466,-0.18301353729182218,0.07987330728349029,0.791181925173556,-0.031405117707462515,0.09980404414158439,0.143820121884346,-0.0674805641174316,0.143820121884346,-0.15961806205493012
0.26806515200000003,0.25578734574784906,-0.18284898226508312,0.08187090561668864,0.792552487219879,-0.02732158778652773,0.11842096730287045,0.143820121884346,-0.0546702481806278,0.143820121884346,-0.14996608572550957
0.272965248,0.2623909784971354,-0.18265976901224065,0.08272947007590759,0.7913772498564253,-0.025693568767776065,0.11613451989985926,0.143820121884346,-0.0420626774430274,0.143820121884346,-0.1402837305580834
0.278030976,0.2656741498251287,-0.1822781325030393,0.07891694569593888,0.7957086825472144,-0.02078012721507346,0.0693681932674551,0.143820121884346,-0.0291259735822677,0.143820121884346,-0.12995426226924886
0.28319296000000005,0.269082453276341,-0.18211191626563789,0.07781576435400694,0.7985456230613186,-0.019169118061937745,0.0783281160082402,0.143820121884346,-0.0169452875852584,0.143820121884346,-0.11909347301144758
0.288035712,0.27232353095174266,-0.18201439448466958,0.08193461148976589,0.7976201794161505,-0.02083011372311811,0.07771926269183801,0.143820121884346,-0.0039851926267147,0.143820121884346,-0.10867928575412024
0.293045888,0.2756932607765272,-0.1817943476728832,0.08071824353132051,0.7954649812911639,-0.022944473825005925,0.06338724483269469,0.143820121884346,-0.0,0.143820121884346,-0.09770586485619275
0.29804172799999995,0.2823147881646459,-0.18143534539363004,0.08275383460454577,0.8018626359799217,-0.021311834284128032,0.11079069374627148,0.143820121884346,-0.0,0.143820121884346,-0.08709001566452028
0.30303475199999996,0.28553761327749316,-0.18133749728631923,0.08294705540258818,0.8028235155497292,-0.018927827022117198,0.22482438150345227,0.143820121884346,-0.0,0.143820121884346,-0.07727780198520327
0.30811097600000004,0.288886355574772,-0.18119304817458054,0.08361614840735232,0.8019328849615278,-0.020558818959600142,0.28566477734509677,0.143820121884346,-0.0,0.143820121884346,-0.06825885892097176
0.31303180799999997,0.2923813998103009,-0.18090923111861487,0.08525231200145811,0.8037436817047361,-0.023937625876593985,0.2423654454633258,0.143820121884346,-0.0,0.143820121884346,-0.06045963981371739
0.317962112,0.2957424747106978,-0.18058960171326013,0.08415118902293184,0.8060427754339554,-0.02415387928222935,0.19749364990174134,0.143820121884346,-0.0,0.143820121884346,-0.0535041317377208
0.323030656,0.3023640224822954,-0.1802604022001808,0.08532386126869174,0.8011629880625845,-0.016244294986502688,0.12541829760678244,0.143820121884346,-0.0,0.143820121884346,-0.04715952333142445
0.32804262399999995,0.3057750915486859,-0.18019135597978206,0.09201773368375932,0.8002005874264143,-0.02390089677230335,0.10280018485992314,0.143820121884346,-0.0,0.143820121884346,-0.04162163672522746
0.33301414399999996,0.30904839368986287,-0.1800334303716125,0.09391828504130473,0.8032561516432016,-0.02688904189723383,0.09034325491028944,0.143820121884346,-0.0,0.143820121884346,-0.03676986895670929
0.338026112,0.3122914875191386,-0.1796688863951779,0.09095108483295711,0.804498618418872,-0.025836977848874777,0.06345128868641962,0.143820121884346,-0.0,0.143820121884346,-0.03244709898653086
0.34303270399999997,0.31562179550937663,-0.1793947665026618,0.0898592774128737,0.8041320522488857,-0.02451487228074468,0.0134812994925246,0.143820121884346,-0.0,0.143820121884346,-0.028635816010073534
0.34812300799999996,0.32246442527344144,-0.17899319795445093,0.08690455977350453,0.805317689786696,-0.020147816197717668,-0.2336839193319746,0.143820121884346,-0.0,0.143820121884346,-0.025215591692259558
0.353011584,0.32580750267112896,-0.17894516299402002,0.08908165852557737,0.8085883905002175,-0.02180246908942302,-0.32653695490962487,0.143820121884346,-0.0,0.143820121884346,-0.022323055499907072
0.358024832,0.32917845727336975,-0.1787214265499732,0.08806796978916687,0.8069955958458005,-0.019580986230937247,-0.35346192527695064,0.143820121884346,-0.0,0.143820121884346,-0.019696945072635526
0.36311616,0.3324274601022788,-0.17854085309842813,0.08715160854795023,0.8036151714520091,-0.01967553249502604,-0.35461655507914636,0.143820121884346,-0.0,0.143820121884346,-0.017343645128269025
0.368024192,0.335813883595894,-0.17825496318232206,0.0847135683430249,0.8033920057835715,-0.013811704276194468,-0.3712120627583441,0.143820121884346,-0.0,0.143820121884346,-0.01534608916222347
0.373019776,0.3425329572244483,-0.17771606494250133,0.07755059319936919,0.8044206159009164,-0.00024072999144581826,-0.3105759937492854,0.143820121884346,-0.0,0.143820121884346,-0.013547064579780452
0.378031232,0.34584245112517104,-0.17754341230114576,0.07845278304227588,0.804524059151822,-0.001797742370194442,-0.34172433546994874,0.143820121884346,-0.0,0.143820121884346,-0.011953890267762704
0.383021696,0.34919400708695536,-0.17723243943129774,0.07401596973706503,0.8051691996256638,-0.006105917351163527,-0.3514703398747506,0.143820121884346,-0.0,0.143820121884346,-0.010553964759017105
0.38796633599999997,0.35254393151206187,-0.17697558034900968,0.07428805930879978,0.8070410544669653,-0.01206766833513974,-0.3195227642834737,0.143820121884346,-0.0,0.143820121884346,-0.009329333478077876
0.39295961599999996,0.3558464586291777,-0.17666532503985657,0.07183625036179642,0.809862724779808,-0.010217465759479485,-0.26684844154512033,0.143820121884346,-0.0,0.143820121884346,-0.008236153362404292
0.39803686400000005,0.36268334873528274,-0.17645923435136748,0.07415642580594728,0.8078523909065253,-0.014055551322655771,-0.15327898684667532,0.143820121884346,-0.0,0.143820121884346,-0.007254839186998655
0.403017088,0.36604212775078426,-0.17634404019147126,0.07166847658709052,0.8079479769032425,-0.017506129988913096,-0.16918279376396478,0.143820121884346,-0.0,0.143820121884346,-0.006406963888815048
0.40803622399999995,0.3694960883217626,-0.17611915376842224,0.07133299437827567,0.8107110982731006,-0.02302215992011317,-0.21891761526190737,0.1388276368379593,-0.0,0.1421495911226273,-0.005652329523324014
0.413011072,0.3727473247834851,-0.1759141528863681,0.07124249235580926,0.811213164844263,-0.01866035736808296,-0.21262990947626906,0.1388276368379593,-0.0,0.14104784328068248,-0.004992453057021565
0.418020736,0.3760468532279752,-0.17562009578689508,0.06737933331266888,0.8109828079701836,-0.010268169701028371,-0.22926390773916516,0.1388276368379593,-0.0,0.14030634406143724,-0.004405534357757079
0.423020928,0.3828766139895575,-0.17552674405896168,0.07148120269513747,0.809424676160857,-0.016190613490322168,-0.17638040831631516,0.1388276368379593,-0.0,0.1398134227261588,-0.003888593766994983
0.42802470400000003,0.38627422840991654,-0.17520681378656264,0.06547885259830633,0.8150772367854585,-0.013553253061584187,-0.17018442936846218,0.1388276368379593,-0.0,0.1394845792749247,-0.0034319833673893837
0.433009792,0.3896916400682956,-0.17500893137585624,0.06275719733489016,0.8185726150181463,-0.014096741627431858,-0.1678576339888252,0.1388276368379593,-0.0,0.13926625155097755,-0.003030494629238326
0.43802278400000005,0.39301263785273577,-0.17493527899539962,0.06387557173696656,0.817773532937087,-0.014026475482702843,-0.12267949989163127,0.1388276368379593,-0.0,0.1391196667478147,-0.0026739894079072647
0.443008128,0.39639396562726925,-0.17466784219229084,0.060304793754409225,0.816061592981997,-0.015607663371545745,-0.1633302583573148,0.1388276368379593,-0.0,0.13902260877722014,-0.0023611581229711007
0.44801983999999995,0.4032845333812716,-0.1745663193553086,0.06538824086397454,0.8154769041050544,-0.01922524251024503,-0.15759922020000475,0.1388276368379593,-0.0,0.13895746589670968,-0.0020834640929244933
0.453009024,0.40667683549325556,-0.1743964497347206,0.062012677429946095,0.8170692656331604,-0.01937912079883403,-0.10345191574361051,0.1388276368379593,-0.0,0.13891428315919951,-0.0018395308968016406
0.45803328,0.410046031794402,-0.17437691270381092,0.06517555219715199,0.8154250705849465,-0.02554820288251666,-0.1413783499202269,0.1388276368379593,-0.0,0.13888526093924158,-0.001622643552191485
0.46310950399999995,0.4134179423459807,-0.1740165654335101,0.062200456174494434,0.8143876991300913,-0.019326007356081337,-0.11082249746427174,0.1388276368379593,-0.0,0.13886576008284773,-0.001429349152393126
0.468025472,0.41682753514388327,-0.17393845209227546,0.06067804157824597,0.8149993297097856,-0.011755363251478556,-0.09765693654688991,0.1388276368379593,-0.0,0.13885326590605254,-0.0012644559544140125
0.47302899200000004,0.4236323036274079,-0.17376212858357348,0.061664453321544244,0.8156238914227958,-0.01430376584303354,-0.0755447717472248,0.1388276368379593,-0.0,0.13884471686906683,-0.001115987320959078
0.478022784,0.4270321628576241,-0.17352064974445197,0.05708852889395555,0.8172387609186543,-0.01466241695864051,-0.07727408129861657,0.1388276368379593,-0.0,0.13883903059421984,-0.0009852061941293061
0.483011968,0.4304248022822533,-0.1732436113542233,0.05658443550699843,0.8175400961385529,-0.011082693623596806,-0.04966291170775157,0.1388276368379593,-0.0,0.13883524089112417,-0.00086985767593952
0.488170368,0.4337675421448762,-0.17312333310096428,0.05743699594448515,0.8169164685685211,-0.011346357804239846,0.02923860114813017,0.1388276368379593,-0.0,0.13883262590793446,-0.0007645600496139025
0.493014144,0.43723556869549574,-0.17317091080575653,0.05818391862748662,0.8147948661985869,-0.012812256627936447,0.06838820441821189,0.1388276368379593,-0.0,0.13883101484544058,-0.0006776537982363784
0.498021504,0.44404448407597,-0.17280804256694093,0.06043506919965225,0.8174838412061098,-0.02327782806689456,0.09719193468724066,0.1388276368379593,-0.0,0.13882988718547115,-0.0005980246522729877
0.50301888,0.44742096181413327,-0.17271844472854364,0.05966939659175807,0.8176457745877538,-0.020408583324862634,0.1584736549240473,0.1388276368379593,-0.0,0.13882913746329464,-0.0005278926110846702
0.508045952,0.45073632325962293,-0.1725465356095271,0.06315386534394207,0.8159087568738097,-0.021034864982156634,0.20220731339439552,0.1388276368379593,-0.0,0.13882863454652092,-0.00046561727874520995
0.513017472,0.454266359722559,-0.1723856740695743,0.0624046442953885,0.8153116458967795,-0.024747147960794403,0.17355210564513882,0.1388276368379593,-0.0,0.13882830387131637,-0.000411295542262691
0.518037632,0.4576073746341639,-0.1724564822161451,0.06539088967380113,0.8170012398512907,-0.02890593793632493,0.16258976238834824,0.1388276368379593,-0.0,0.13882808063037116,-0.00036284184441901586
