time,s,e,dtheta,vx,vy,omega,throttle,steering,x,y,heading_angle
0.035129983999999996,10.489055647051622,-0.0510954310542035,-0.04733173413285696,0.769064681621281,-0.03829045596410243,-0.19003372093976445,0.1463368386030197,-0.0,-0.22466758838707285,-0.05109543105420372,-0.047331734132857406
0.040149376,10.49572231371829,-0.051907325889195235,-0.04730945429874778,0.7752616232342675,-0.040856216975512755,-0.12954465325745493,0.1463368386030197,0.0,-0.21831628816817536,-0.05190732588919546,-0.04730945429874822
0.045232256,10.49572231371829,-0.05217393977931002,-0.04687322590993892,0.7729216746241013,-0.04586599631826045,-0.1484709129564292,0.1463368386030197,0.0,-0.2151109541261379,-0.052173939779310244,-0.046873225909939364
0.050291327999999996,10.499055647051623,-0.05238378799469242,-0.047357864860618104,0.77174937350261,-0.04699446774809455,-0.17233206993669692,0.1463368386030197,0.0,-0.21181105105699513,-0.05238378799469264,-0.04735786486061855
0.055151231999999994,10.502388980384957,-0.052828554984439835,-0.0478803685616227,0.7756846226854466,-0.045528435863571776,-0.19891060721920592,0.1463368386030197,0.00021175806348919455,-0.20861959877261885,-0.05282855498444006,-0.04788036856162314
0.060255359999999994,10.505722313718291,-0.05321885895085147,-0.04715238845563574,0.7784640745833676,-0.050839682418641154,-0.26747680220285874,0.1463368386030197,0.0011292502927878196,-0.2054000186977752,-0.05321885895085169,-0.047152388455636185
0.065249152,10.512388980384959,-0.053931687548885957,-0.051803081638350346,0.7759848672952142,-0.05987571288584155,-0.4178788830488637,0.1463368386030197,0.002684316025140434,-0.19899966302346347,-0.05393168754888618,-0.05180308163835079
0.070268544,10.515722313718292,-0.0542974238248972,-0.05422650873666646,0.7784875340758242,-0.05495001105470307,-0.48017509559444205,0.1463368386030197,0.0050063556576725905,-0.19570796138383517,-0.05429742382489742,-0.0542265087366669
0.075248768,10.519055647051626,-0.05488664000300796,-0.05552759325168166,0.7831453802492172,-0.056308757915438795,-0.5783658885945809,0.1463368386030197,0.007883000267924363,-0.19249884632845926,-0.054886640003008184,-0.055527593251682106
0.080234624,10.52238898038496,-0.05536368184441347,-0.057116944579350015,0.7851601238214675,-0.06112165787609095,-0.7027533843983556,0.1463368386030197,0.0111031623243965,-0.18933863366366108,-0.05536368184441369,-0.05711694457935046
0.085235584,10.525722313718294,-0.05568055989491987,-0.06224411730177559,0.7831476204546415,-0.060360590399296477,-0.8020696000457668,0.1463368386030197,0.014633895068220182,-0.18606791622068003,-0.055680559894920094,-0.062244117301776036
0.090123904,10.532388980384962,-0.0565415220877427,-0.06657653178370948,0.7853672476659468,-0.0482431227128342,-0.8903354280340102,0.1463368386030197,0.018212901213537643,-0.17947893761325076,-0.05654152208774292,-0.06657653178370992
0.095231104,10.535722313718296,-0.0571008463691687,-0.07167075479647655,0.7859644078025942,-0.044227708846773434,-0.9051064425561346,0.1463368386030197,0.02195490894515692,-0.17628834996892995,-0.05710084636916892,-0.071670754796477
0.100120704,10.53905564705163,-0.05748411957238399,-0.07658444314641555,0.7863659177887717,-0.04182475257702615,-0.9321705323120283,0.1463368386030197,0.02549246074581657,-0.17304346337120838,-0.05748411957238421,-0.07658444314641599
0.105235584,10.542388980384963,-0.05783040034459119,-0.08286778028017805,0.7854992946437441,-0.03626288331255873,-0.8900816480914386,0.1463368386030197,0.02903988780509199,-0.16975677919073645,-0.057830400344591415,-0.0828677802801785
0.110237056,10.545722313718297,-0.0582756879418219,-0.08756277700524207,0.7847122838067613,-0.030499564619967865,-0.8267804518467023,0.1463368386030197,0.03231371545210162,-0.16655623959988256,-0.05827568794182212,-0.08756277700524251
0.115267456,10.552388980384965,-0.05902661213081582,-0.09534645978414646,0.7871042831105279,-0.031577934609379354,-0.7839333816673627,0.1463368386030197,0.03538185901363809,-0.15999337463066235,-0.059026612130816045,-0.09534645978414691
0.120235392,10.555722313718299,-0.059444554964858363,-0.09737586880403581,0.7887685829838073,-0.031523437486411274,-0.7241377404013473,0.1463368386030197,0.03814849489495355,-0.15677753378842918,-0.059444554964858586,-0.09737586880403626
0.125217408,10.559055647051633,-0.059973202107331286,-0.1007178529672248,0.791186153705134,-0.032801211062006765,-0.6806602115133525,0.1463368386030197,0.04064760002581324,-0.15354574522672407,-0.05997320210733151,-0.10071785296722524
0.13024703999999998,10.562388980384966,-0.06055352360436184,-0.10023434282061627,0.7904677281897805,-0.04128348075199985,-0.640582747063627,0.1463368386030197,0.04289853748582047,-0.15027754824892334,-0.060553523604362065,-0.10023434282061672
0.135145088,10.5657223137183,-0.060965841107749164,-0.1037100930255197,0.7898970083678393,-0.04242795730660126,-0.5712405345118516,0.1463368386030197,0.0448471566228631,-0.14699210598643464,-0.060965841107749386,-0.10371009302552014
0.140181888,10.572388980384968,-0.062001205122928796,-0.10644739100447387,0.7889365907933392,-0.03743858445459288,-0.5903091702620799,0.1463368386030197,0.04662776416253442,-0.1404285843082346,-0.06200120512292902,-0.10644739100447431
0.145291904,10.575722313718302,-0.06266069877994153,-0.10818739545157063,0.7884604300764005,-0.04047066890636212,-0.6184064520173448,0.1463368386030197,0.048224278893731,-0.13723126683757583,-0.06266069877994175,-0.10818739545157108
0.15025139199999998,10.579055647051636,-0.06304228182199649,-0.1136586425798991,0.787772163034206,-0.0406731736369438,-0.7115711980229371,0.1463368386030197,0.049589574788449636,-0.13396603177906286,-0.06304228182199671,-0.11365864257989955
0.155266944,10.58238898038497,-0.06345447735232074,-0.11549174674354434,0.7866386255844405,-0.040231409777368506,-0.7779497048691024,0.1463368386030197,0.05081033394681958,-0.13078017454429042,-0.06345447735232096,-0.11549174674354479
0.160118144,10.585722313718303,-0.06413337316748957,-0.11673186008055536,0.7880487310258767,-0.034921213787608096,-0.8203227545696848,0.1463368386030197,0.05185245033557679,-0.1275146577013876,-0.0641333731674898,-0.1167318600805558
0.165112192,10.592388980384971,-0.06527948623351096,-0.12456620850748612,0.7954155890616668,-0.04104712092214684,-0.8916808242763129,0.1463368386030197,0.052803277094451706,-0.12102490945122936,-0.06527948623351118,-0.12456620850748656
0.170231424,10.595722313718305,-0.06578450258135636,-0.13021472815345136,0.7963706390590977,-0.041530607612168924,-0.9188118674288059,0.1463368386030197,0.05366379173425014,-0.11779874409635761,-0.06578450258135658,-0.1302147281534518
0.175116672,10.599055647051639,-0.06625450376908998,-0.1359643244069626,0.7972189955255614,-0.04034704304193207,-0.9539594314672015,0.1463368386030197,0.05438636038280457,-0.11444200853335265,-0.0662545037690902,-0.13596432440696304
0.180284288,10.602388980384973,-0.06698831192850624,-0.13929192793954703,0.798936569878103,-0.04074150599728138,-1.0293862927687252,0.1454698102308273,0.05506308585459601,-0.11113607550844841,-0.06698831192850646,-0.13929192793954748
0.18522688,10.605722313718307,-0.06764922112833406,-0.14327509581757036,0.7989975616060856,-0.04027453844527221,-1.0485886644948281,0.1449262278025732,0.05563185983872284,-0.10786761098522993,-0.06764922112833428,-0.1432750958175708
0.190154368,10.612388980384974,-0.06909509707644833,-0.15031062097148018,0.7957991002059945,-0.04558378699328203,-1.0997435408490703,0.1445628728933203,0.05613313025049405,-0.10136389842454595,-0.06909509707644855,-0.15031062097148062
0.195220864,10.615722313718308,-0.06970783043044082,-0.15575984615484328,0.7945205301098998,-0.04104373436676413,-1.0359652332645881,0.14431199655892268,0.05658894506314031,-0.09812324619531314,-0.06970783043044104,-0.15575984615484373
0.200244352,10.619055647051642,-0.07033642942432926,-0.16083704844948477,0.7978744400236166,-0.03791682122308175,-0.953516861267039,0.14414726812390669,0.056987157408435615,-0.09490514158725001,-0.07033642942432948,-0.1608370484494852
0.205155968,10.622388980384976,-0.07106668654399707,-0.16574717490796909,0.7990749301439245,-0.0373872777498839,-0.8502273186112209,0.14404014701026896,0.05733060393495189,-0.09161871220795452,-0.0710666865439973,-0.16574717490796953
0.210336896,10.622388980384976,-0.07175663492745304,-0.16937330798186023,0.79867939101841,-0.04127698870783287,-0.7695590024383345,0.14396415138789578,0.057651126069981205,-0.08845927158605076,-0.07175663492745327,-0.16937330798186068
0.215251072,10.629055647051644,-0.07322290550432616,-0.1798639605686536,0.8019194389022204,-0.04128052597758841,-0.7006144090501508,0.1439169656325867,0.05791818273304525,-0.08182980057964287,-0.07322290550432638,-0.17986396056865406
0.220117376,10.632388980384977,-0.07408664435130768,-0.18127892199495887,0.8039102219560249,-0.0460991459943134,-0.6602834849271667,0.14388554755795746,0.05815214080513761,-0.07859998346366802,-0.0740866443513079,-0.18127892199495932
0.225215104,10.635722313718311,-0.07494299202099469,-0.18138313342580004,0.8047475864298012,-0.0506217695255727,-0.6272411985580814,0.14386331273873826,0.05836923721937903,-0.07537019035685323,-0.07494299202099491,-0.18138313342580048
0.23012185599999999,10.639055647051645,-0.0756482930567293,-0.17912128498682245,0.8009016280671334,-0.05585007140358487,-0.6101204523111922,0.1438491842846602,0.05855320274758705,-0.07206753244610163,-0.07564829305672952,-0.1791212849868229
0.235286656,10.642388980384979,-0.07649247772482398,-0.18075812745494035,0.8002159157438072,-0.05900571645288195,-0.5621190601065184,0.143839177518984,0.058724546155383306,-0.06886322164831453,-0.0764924777248242,-0.1807581274549408
0.240281216,10.649055647051647,-0.07813485743448424,-0.18693187444139836,0.7969531329908646,-0.055756264886364294,-0.5805273313324797,0.14383283255161483,0.05887015921170183,-0.06237500660947558,-0.07813485743448446,-0.1869318744413988
0.245280384,10.65238898038498,-0.07905355878628324,-0.19019104098689565,0.7963072115993421,-0.05817723108410565,-0.6823610199239564,0.14382859636754355,0.05899882403391625,-0.05919336943438996,-0.07905355878628346,-0.1901910409868961
0.250284928,10.655722313718314,-0.08003365799787324,-0.19389012093350155,0.7984216367422245,-0.0553816389569383,-0.8194231456010861,0.1438257689726076,0.05911251668981711,-0.055936567598216004,-0.08003365799787346,-0.193890120933502
0.25522035200000004,10.659055647051648,-0.08079692557846399,-0.19715811682018414,0.7971758942980877,-0.05101093177561234,-0.8621738317477372,0.14382391092094518,0.059211471315260444,-0.05272665908458793,-0.08079692557846421,-0.19715811682018458
0.26027660799999996,10.662388980384982,-0.08162995225289434,-0.19946978690258588,0.7988520932235164,-0.051181895409673994,-0.8860481963733737,0.14382263369834258,0.05930110718989458,-0.04963618544528749,-0.08162995225289456,-0.19946978690258632
0.265118336,10.66905564705165,-0.08344203658029765,-0.20888787541445764,0.7977823952024086,-0.049609623454366356,-0.9959910758561452,0.14382182293033205,0.05937675552214994,-0.04303487446221106,-0.08344203658029788,-0.20888787541445808
0.270370176,10.672388980384984,-0.08415012789723991,-0.21632393011073914,0.8018661006846566,-0.04854087408987566,-1.0326828409857136,0.1438212273555753,0.05944948831779646,-0.03989542939955642,-0.08415012789724013,-0.21632393011073958
0.27520499200000004,10.675722313718317,-0.08519841738776653,-0.21929455411364662,0.8023273938476879,-0.043472526868154455,-1.0487426467590923,0.1438208710389095,0.05950819362185458,-0.036588753375964546,-0.08519841738776675,-0.21929455411364707
0.280237184,10.679055647051651,-0.08616424307009013,-0.21961772700449478,0.8005148600462312,-0.04543887917544223,-1.137307076211931,0.14382061971293608,0.059562363004327226,-0.033498628725454706,-0.08616424307009035,-0.21961772700449522
0.285226624,10.682388980384985,-0.08714781230021489,-0.22572315487764305,0.8016906987963288,-0.051643017729517966,-1.185098589492541,0.14382045412054406,0.05960972967146225,-0.030239146459560395,-0.08714781230021511,-0.2257231548776435
0.290114176,10.689055647051653,-0.08882687776938675,-0.23892205974550462,0.8025408904256702,-0.03380711148685645,-1.1361009255556864,0.14382034586576445,0.05965069632845546,-0.02378214757938856,-0.08882687776938697,-0.23892205974550507
0.295240576,10.692388980384987,-0.09000008691796597,-0.23982215543000285,0.8011281783144404,-0.03426758900840173,-1.0930422306353482,0.1438202693178749,0.05968873665598234,-0.020577208527247006,-0.0900000869179662,-0.2398221554300033
0.30011584,10.69572231371832,-0.09099470915536666,-0.24736080740315325,0.7993664150361574,-0.031205567106721344,-1.0893174562329213,0.14382022139938316,0.059720561346052296,-0.01744846419224114,-0.09099470915536688,-0.2473608074031537
0.305135488,10.699055647051654,-0.09172774910573228,-0.25352003524663314,0.8038317180849212,-0.03180340636680844,-1.0704751263901982,0.14382018809735267,0.059749579739606984,-0.014153524652108694,-0.0917277491057325,-0.25352003524663314
0.31011033600000004,10.702388980384988,-0.09262991272764924,-0.2600539062766529,0.8048248920937402,-0.031374160572289894,-1.0411993362421972,0.14382016613737642,0.05977495141796208,-0.010915622350861728,-0.09262991272764946,-0.2600539062766529
0.315291008,10.709055647051656,-0.09469003786250266,-0.2674781546596572,0.8042738809589681,-0.032048659683955844,-0.9691723242061122,0.14382015085334737,0.05979828825500026,-0.004618945530884055,-0.09469003786250288,-0.2674781546596572
0.320268416,0.0,-0.09577780444836356,-0.2683359495122062,0.804349439525324,-0.03886495663020361,-0.9510689757322942,0.14382014124064477,0.05981798362822608,-0.0012837037811122328,-0.09577780444836356,-0.2683359495122062
0.32528268800000004,0.0033333333333333335,-0.09688962473396186,-0.2704305147739374,0.8079697223701907,-0.03853287456148486,-0.8399599652093859,0.1438201347701283,0.059835507329366,0.0018231858429167034,-0.09688962473396186,-0.2704305147739374
0.330229376,0.0033333333333333335,-0.09798362337101624,-0.2730375386221411,0.8092838219748352,-0.03925201841584631,-0.7872739262023857,0.14382013052066533,0.059850760630617235,0.004967276794315015,-0.09798362337101624,-0.2730375386221411
0.33511795200000005,0.006666666666666667,-0.0989418359776689,-0.2776296936753866,0.8051596135249982,-0.04349258928740723,-0.769829757990789,0.1438201277060451,0.05986408488822702,0.008184572566052633,-0.0989418359776689,-0.2776296936753866
0.34033727999999996,0.013333333333333334,-0.10106947754438933,-0.28690051541653006,0.8027918072749738,-0.034407724465606346,-0.7275822742337922,0.14382012568035463,0.05987667866740859,0.014613981961110752,-0.10106947754438933,-0.28690051541653006
0.34526835199999995,0.016666666666666666,-0.10227969954802853,-0.287463873272344,0.8097712194894846,-0.0368381642518682,-0.7372893584879087,0.14382012443246184,0.05988711959741509,0.017707105688991864,-0.10227969954802853,-0.287463873272344
0.35012876800000003,0.02,-0.10350083899342151,-0.29041353659244606,0.8112604258202301,-0.04031208022742279,-0.7055634904603594,0.14382012360680163,0.0598962200421811,0.0208641184622877,-0.10350083899342151,-0.29041353659244606
0.35522342399999995,0.023333333333333334,-0.10444524582320193,-0.29532704101284146,0.8073106198019708,-0.0420650275282608,-0.6316720291774459,0.14382012302178038,0.05990467105847035,0.02386334382000554,-0.10444524582320193,-0.29532704101284146
0.360225664,0.02666666666666667,-0.10560490400933517,-0.2971708765213652,0.8056937458524739,-0.04428425393022592,-0.5665251123469152,0.14382012264246574,0.05991197673589299,0.027274414956665927,-0.10560490400933517,-0.2971708765213652
0.36514777600000003,0.03333333333333333,-0.10801385503005796,-0.3013511268482798,0.8168480209828914,-0.05038739891270569,-0.5341087794569179,0.14382012239369574,0.05991832153380937,0.03367331323262085,-0.10801385503005796,-0.3013511268482798
0.370276736,0.03666666666666667,-0.10915159787041259,-0.30500010539558353,0.8192275612018701,-0.056309944029733175,-0.5783489787782984,0.14382012221953344,0.05992416930274542,0.036667617644971215,-0.10915159787041259,-0.30500010539558353
0.37511360000000005,0.04,-0.1104296551492057,-0.30314446374088355,0.8107494404552463,-0.06020269015852408,-0.5357948798459381,0.1438201221114497,0.059929020281764056,0.039835914147118186,-0.1104296551492057,-0.30314446374088355
0.380329856,0.043333333333333335,-0.11170393044595815,-0.30542569653341367,0.8082042639834316,-0.058718855518441374,-0.5242272126443175,0.1438201220324743,0.05993365795519262,0.043035765674177676,-0.11170393044595815,-0.30542569653341367
0.3852512,0.04666666666666667,-0.11319188764496001,-0.3048195268831648,0.8116619656685014,-0.061321724190208274,-0.5275282078619565,0.14382012198387495,0.05993749782962676,0.04632158208941243,-0.11319188764496001,-0.3048195268831648
0.39026291199999996,0.05333333333333334,-0.11550663512601385,-0.3141294166216584,0.8166442091998494,-0.055914643357479955,-0.5413847523638167,0.1438201219506209,0.059945687607722536,0.05251682861849876,-0.11550663512601385,-0.3141294166216584
0.39525004799999996,0.05666666666666667,-0.11672423121037413,-0.3167629297857655,0.8121666276097933,-0.04982118169819455,-0.5204789239373484,0.14382012192858612,0.060036650921906555,0.05565593215194315,-0.11672423121037413,-0.3167629297857655
0.400260736,0.060000000000000005,-0.11806320956833533,-0.31809192367084016,0.8033692488622076,-0.042184633520389474,-0.46729930329360025,0.14382012191380789,0.060228256990591256,0.05877564189514187,-0.11806320956833533,-0.31809192367084016
0.405231232,0.06333333333333334,-0.11930898054019029,-0.32246011052813994,0.8030746478703747,-0.041803753307454596,-0.43779931383832,0.14382012190404522,0.06058145788566037,0.06197279944659583,-0.11930898054019029,-0.32246011052813994
0.41012287999999997,0.06666666666666667,-0.12064620007932811,-0.3242252865823696,0.8081183747792287,-0.04782321883908693,-0.3866938252909868,0.1438201218976211,0.06119184480476988,0.06519761304371995,-0.12064620007932811,-0.3242252865823696
0.41523136000000005,0.06999999999999999,-0.12275928328216304,-0.32977331365608364,0.8073802073402591,-0.04468139650904213,-0.21980969547506637,0.14382012189310006,0.06209413715847662,0.07120317940266195,-0.12275928328216304,-0.32977331365608364
0.42011532799999995,0.07333333333333332,-0.12424781365273864,-0.3260815885408679,0.8022006347409577,-0.04779737541541648,-0.22120581936907763,0.14382012189024976,0.06330607453517978,0.07438523320615119,-0.12424781365273864,-0.3260815885408679
0.425181312,0.07666666666666665,-0.12564510438706397,-0.3253241187143878,0.7995208714925552,-0.05187139380454409,-0.21624935790109456,0.14382012188825588,0.06501598894380715,0.07758301332903429,-0.12564510438706397,-0.3253241187143878
0.430241408,0.07999999999999997,-0.1269247642562398,-0.32505244144925527,0.8051974706696635,-0.05778938443658026,-0.1731698023884212,0.14382012188693694,0.06712067995618592,0.0806632724824248,-0.1269247642562398,-0.32505244144925527
0.43523161600000004,0.0833333333333333,-0.12816476247461214,-0.32440843969428457,0.8108121112017689,-0.05669713433081379,-0.20251742494332553,0.143820121886075,0.06963056936466813,0.08380040918496831,-0.12816476247461214,-0.32440843969428457
0.440241024,0.08999999999999996,-0.13076677937275097,-0.325754935307903,0.8094886856371097,-0.048302625645493674,-0.22897327865182907,0.1438201218854976,0.07267876210976446,0.08989076754821286,-0.13076677937275097,-0.325754935307903
0.44511807999999997,0.09333333333333328,-0.13195595596530998,-0.3293772333673566,0.8095249045556991,-0.04572625279906906,-0.310908048779146,0.14382012188512316,0.0760405732030176,0.09302003895850502,-0.13195595596530998,-0.3293772333673566
0.45035942399999995,0.09666666666666661,-0.1332619456185363,-0.330997613851717,0.810768517838936,-0.0472171426135058,-0.36851370261068356,0.1438201218848516,0.08023093047490643,0.09634455132169202,-0.1332619456185363,-0.330997613851717
