time,s,e,dtheta,vx,vy,omega,throttle,steering,x,y,heading_angle
0.034529152,0.01,-0.15038503657368812,0.1009370467242432,1.070491087478609,-0.058532313673886865,-0.6963780169145047,0.1776841729879379,-0.1012782230973243,0.00853325763586398,-0.15038503657368812,0.1009370467242432
0.03960768,0.016666666666666666,-0.14970615935097414,0.08836259452681006,1.0737287406548028,-0.056606479183623555,-0.5825141321538335,0.1776841729879379,-0.1012782230973243,0.017444691011734136,-0.14970615935097414,0.08836259452681006
0.0447264,0.023333333333333334,-0.14952626148644324,0.08591626081878623,1.0734742921523899,-0.05392362838798494,-0.5248605352754319,0.1776841729879379,-0.09992692580465982,0.021907764030496216,-0.14952626148644324,0.08591626081878623
0.049617791999999994,0.02666666666666667,-0.1494252404280264,0.08570034920107794,1.0746171652242513,-0.052506058310566164,-0.47339385843801013,0.1776841729879379,-0.09665923089355442,0.02624329934644147,-0.1494252404280264,0.08570034920107794
0.054599551999999996,0.030000000000000002,-0.14930456243293788,0.0857255560350616,1.0785667177367375,-0.06176952678895916,-0.45412607182715004,0.1776841729879379,-0.09176765442651576,0.030772415621055073,-0.14930456243293788,0.0857255560350616
0.059591807999999996,0.03666666666666667,-0.14930000748146066,0.08733097271643775,1.0821026762985502,-0.07390849029730925,-0.39464740889228334,0.1776841729879379,-0.08528069996890524,0.03535163717556505,-0.14930000748146066,0.08733097271643775
0.06484211200000001,0.043333333333333335,-0.14915781295656053,0.0860064316654432,1.0862774414976089,-0.07359645997908237,-0.25110460971458515,0.1776841729879379,-0.07687276660821242,0.04440548350877783,-0.14915781295656053,0.0860064316654432
0.06959167999999999,0.05,-0.1490709919961558,0.08540563706667292,1.0900631264967746,-0.07310231297831367,-0.3156867020675721,0.1776841729879379,-0.06914160481298331,0.049030339533270864,-0.1490709919961558,0.08540563706667292
0.07459392000000001,0.05333333333333334,-0.14895077462969714,0.08312220509321566,1.091869428649896,-0.06810144092274092,-0.41028010213872984,0.1776841729879379,-0.06146070982487141,0.05358008442283988,-0.14895077462969714,0.08312220509321566
0.079481216,0.05666666666666667,-0.14872458718156775,0.08047994901705202,1.0910115464520245,-0.0634212645222863,-0.45577939102116855,0.1776841729879379,-0.05461051934653252,0.05791660603784464,-0.14872458718156775,0.08047994901705202
0.08478144,0.06333333333333334,-0.1488392860963475,0.08295980836382988,1.089919107313011,-0.06614098624875694,-0.513896913049781,0.1776841729879379,-0.047921377247910006,0.06259996256305095,-0.1488392860963475,0.08295980836382988
0.08962521600000001,0.07333333333333332,-0.14861354964886836,0.07551864769194072,1.0981609253515148,-0.07991547605333635,-0.6526387768021233,0.1776841729879379,-0.04251533362887418,0.07175428669343016,-0.14861354964886836,0.07551864769194072
0.094617984,0.07666666666666665,-0.14834823326326313,0.06715972870025588,1.1004231253319572,-0.07321991761153517,-0.715055752752093,0.1776841729879379,-0.03755454028489319,0.07622849654015379,-0.14834823326326313,0.06715972870025588
0.099591808,0.07999999999999997,-0.14845708783594425,0.0666569034329445,1.0955190323861315,-0.06885975945542672,-0.7455745477178819,0.1776841729879379,-0.03318073023961353,0.08088737325512935,-0.14845708783594425,0.0666569034329445
0.104612992,0.08666666666666663,-0.1486080878459663,0.06461967277834013,1.0944342409082863,-0.06808075828764461,-0.7601818263042911,0.1776841729879379,-0.029275531785522044,0.0855351988128909,-0.1486080878459663,0.06461967277834013
0.109574272,0.08999999999999996,-0.14888262420985265,0.0634152137812567,1.0983471577628603,-0.07165423425104392,-0.7507583763072663,0.1767918766164779,-0.025869190745609515,0.090189832163944,-0.14888262420985265,0.0634152137812567
0.114601856,0.09999999999999994,-0.14854561062855468,0.05464611724498969,1.0954553160636942,-0.0659046524348155,-0.6628197991254633,0.17618672833215115,-0.02281809549503512,0.09921406432907516,-0.14854561062855468,0.05464611724498969
0.119662976,0.10333333333333326,-0.1484983913590353,0.0483347238766898,1.0942007236111344,-0.05629633309282318,-0.6553841132151488,0.17578172533858305,-0.020108485697085367,0.10374816527893099,-0.1484983913590353,0.0483347238766898
0.124610176,0.10999999999999992,-0.1485745109151413,0.046923031464791265,1.0957584602818653,-0.05575546042860434,-0.6652987039789775,0.17463500674586818,-0.0177741937538883,0.10844052112247479,-0.1485745109151413,0.046923031464791265
0.129595008,0.11333333333333324,-0.14868913163152567,0.04683328391512109,1.097059228630863,-0.06017307794404915,-0.6897417257250494,0.1738606453468937,-0.015695095954559223,0.11296495889847177,-0.14868913163152567,0.04683328391512109
0.134801024,0.11666666666666657,-0.14872451894547248,0.04304899858970579,1.0990768578057941,-0.06381880189858137,-0.6914513455682143,0.17332068030011866,-0.013777691425715064,0.1174738850898947,-0.14872451894547248,0.04304899858970579
0.139641984,0.12666666666666657,-0.14880580766845444,0.038179489125122146,1.0992184897460024,-0.06317004853469922,-0.6464588307409982,0.17299284193553624,-0.012212535223937197,0.1266874625983423,-0.14880580766845444,0.038179489125122146
0.14478169600000002,0.1299999999999999,-0.14888498435924147,0.03556048013429702,1.1023512731515128,-0.060027058423531406,-0.6788246252790734,0.172757104542756,-0.010739555038497044,0.13127583275511437,-0.14888498435924147,0.03556048013429702
0.14961651199999998,0.13666666666666655,-0.1491191953058203,0.034730520010031185,1.0993889365496377,-0.05817025638104039,-0.7966140739842696,0.17261133459996988,-0.009521070501319655,0.13590014576249662,-0.1491191953058203,0.034730520010031185
0.154628736,0.13999999999999987,-0.14925304490873942,0.030078017475338115,1.0942368304893568,-0.05217373783956228,-0.782196199319885,0.17250892457087716,-0.00765964436736875,0.14050341251487483,-0.14925304490873942,0.030078017475338115
0.159607424,0.14666666666666653,-0.14924532459531079,0.026894595947115185,1.099422274311289,-0.05374315321040398,-0.777947154207983,0.17244119092332666,-0.004623646831396249,0.14511719119585106,-0.14924532459531079,0.026894595947115185
0.164628608,0.15333333333333318,-0.1494697792114496,0.020589385588642983,1.1081577340006898,-0.06062238774963199,-0.8237412085006128,0.1723955526701584,-0.0005850833797944634,0.1541385082547076,-0.1494697792114496,0.020589385588642983
0.169627008,0.15999999999999984,-0.14942091588859868,0.012442608826168211,1.1081576317578403,-0.05355685420123956,-0.8518559995863231,0.17236532938697172,0.004449379519742724,0.15860596741366287,-0.14942091588859868,0.012442608826168211
0.17466816,0.16333333333333316,-0.1496791423508394,0.008290653259958702,1.104903734989274,-0.04978804046000372,-0.8712200745667108,0.1723450049442021,0.010621466971543207,0.16355151551150043,-0.1496791423508394,0.008290653259958702
0.179597952,0.1666666666666665,-0.15019005616464187,0.00989028948844961,1.1036431299479583,-0.05437895412416875,-0.8169204271073074,0.17233180915723742,0.01735933319618576,0.16820264032165871,-0.15019005616464187,0.00989028948844961
0.184600448,0.17333333333333314,-0.15038685242650282,0.005587485746074705,1.1081332493584914,-0.05778452170331896,-0.7480512893101882,0.17232281955177262,0.024841495164807697,0.17290208646063313,-0.15038685242650282,0.005587485746074705
0.189599872,0.18333333333333313,-0.15056556526713236,-0.002919390237355657,1.105550435645835,-0.051503873393488823,-0.7186425241008061,0.17231683165671968,0.03304941554515918,0.181906569860685,-0.15056556526713236,-0.002919390237355657
0.19450688,0.18666666666666645,-0.15082092005696157,-0.004876759437497213,1.1032002186846788,-0.04092818211421401,-0.5769397339007205,0.17231291329314175,0.04147270788725597,0.18634859343175303,-0.15082092005696157,-0.004876759437497213
0.199615872,0.18999999999999978,-0.1510792606158241,-0.010176497196491496,1.1035667816377486,-0.03665992819328621,-0.5673191194643864,0.17231016823304027,0.0505636022002281,0.19105435593583578,-0.1510792606158241,-0.010176497196491496
0.204633728,0.19666666666666643,-0.15146611959085113,-0.0077353163713480555,1.1054178899947757,-0.05219825796236381,-0.6368187526024812,0.17230839042804177,0.0599030587758413,0.1957858372449537,-0.15146611959085113,-0.0077353163713480555
0.209627264,0.19999999999999976,-0.1515957438861531,-0.010808879416615902,1.1078588614909697,-0.06137571534271898,-0.6526509001379686,0.17230721307506636,0.06928179165936767,0.20045013120812824,-0.1515957438861531,-0.010808879416615902
0.214602368,0.20999999999999974,-0.15192897888926332,-0.016719215884970495,1.1111124626501696,-0.050472350891634904,-0.7121014002516913,0.17230643056480305,0.07870297503504853,0.20965063028430858,-0.15192897888926332,-0.016719215884970495
0.219600256,0.21333333333333307,-0.1526113028292227,-0.015433400587755663,1.1118627339219325,-0.04933604649502526,-0.6946542943640703,0.17230590519753058,0.08820460995138073,0.21410774800453544,-0.1526113028292227,-0.015433400587755663
0.224551296,0.21999999999999972,-0.15305376556813124,-0.018389726233522197,1.1135787429703143,-0.04799577282831994,-0.5874910422556184,0.17230555816244483,0.09764395627733508,0.2187301718578811,-0.15305376556813124,-0.018389726233522197
0.229604736,0.22333333333333305,-0.15316721336714667,-0.02450735149671779,1.114675638794909,-0.047747998277798326,-0.529119338946155,0.17230532086453007,0.10727069754581088,0.22342558609409208,-0.15316721336714667,-0.02450735149671779
0.234600064,0.22666666666666638,-0.15340560697292596,-0.028581816539967164,1.1185041173704435,-0.05194710842434268,-0.5282573932136962,0.17230516532081566,0.11674428637862924,0.22817133909674372,-0.15340560697292596,-0.028581816539967164
0.239598464,0.23666666666666636,-0.15373719240155187,-0.039178683795490166,1.1233254790278258,-0.05048853578357106,-0.5264623826688463,0.1723050615127593,0.12614637452659133,0.23747122349171912,-0.15373719240155187,-0.039178683795490166
0.24464550399999999,0.243333333333333,-0.1542520984968134,-0.03955088178657462,1.1179624869921556,-0.04787427983138064,-0.4808326215293079,0.17230499162276242,0.13550124068948938,0.2421101539684353,-0.1542520984968134,-0.03955088178657462
0.249618048,0.24666666666666634,-0.155181778441948,-0.03221387995464653,1.1138737707476767,-0.062497122526302094,-0.3764448161223065,0.17230494593310425,0.14450708951385863,0.24678088428856065,-0.155181778441948,-0.03221387995464653
0.254612864,0.24999999999999967,-0.15583871664009483,-0.034832518808323165,1.1126463058106755,-0.06869499263023449,-0.20945465814706027,0.17230491525289804,0.1532595911233315,0.2514779957383702,-0.15583871664009483,-0.034832518808323165
0.259647104,0.2566666666666664,-0.15589177010296215,-0.04052388846297106,1.11514246388368,-0.0642392387420934,-0.0624979469493054,0.17230489462730156,0.16175399362603318,0.25603927156457995,-0.15589177010296215,-0.04052388846297106
0.264599424,0.26666666666666644,-0.15662683011428855,-0.03790816755611459,1.1135923053927081,-0.05066681205244547,0.10074295618424908,0.1723048811469734,0.16973780182701692,0.26525673378932024,-0.15662683011428855,-0.03790816755611459
0.269597824,0.2699999999999998,-0.1569102831717549,-0.03999108971727772,1.1147151009558522,-0.0524139116694033,0.02806039758713236,0.17230487203321923,0.177408915618472,0.2698110328301885,-0.1569102831717549,-0.03999108971727772
0.274598016,0.27333333333333315,-0.15745855748556775,-0.03741327600268107,1.117282796129595,-0.06293478738694332,0.009051579046612013,0.17230486595423236,0.1846689930724437,0.27461493342987514,-0.15745855748556775,-0.03741327600268107
0.27960128,0.27999999999999986,-0.15793545111765522,-0.03487563092054646,1.1157028140135008,-0.06308081992175936,0.14996607421689265,0.17230486189916244,0.1914974611536367,0.2792331471087112,-0.15793545111765522,-0.03487563092054646
0.28460608,0.2833333333333332,-0.15850043911431427,-0.033327667452788035,1.1171320910830331,-0.06170980710011738,0.24026148175391215,0.1723048591958352,0.19787861287026892,0.2838270042806926,-0.15850043911431427,-0.033327667452788035
0.289641088,0.2933333333333333,-0.1591635364067419,-0.03527836117046501,1.1197339783934077,-0.056532118244906567,0.20568964589438218,0.1723048573836095,0.20384211357652818,0.2931003482256682,-0.1591635364067419,-0.03527836117046501
0.29466943999999995,0.29666666666666663,-0.15946023691014913,-0.03391380729535953,1.1200456217285033,-0.05641164697514491,0.14927791032287735,0.17230485618128005,0.20932208225823018,0.29768153766015354,-0.15946023691014913,-0.03391380729535953
0.29958976000000004,0.30333333333333334,-0.1598460584496325,-0.032302377344709754,1.1194480197884453,-0.054813285235581696,0.053423616439623185,0.17230485539917184,0.21418077386750822,0.3023962452324275,-0.1598460584496325,-0.032302377344709754
0.30468441599999996,0.3066666666666667,-0.16028799957217635,-0.02930668681434323,1.1169453974304864,-0.056583527984708504,0.0031410284184446237,0.17230485485499025,0.21869151401107,0.30717683458643186,-0.16028799957217635,-0.02930668681434323
0.309792384,0.3133333333333334,-0.16070547195160936,-0.031696116091847415,1.112769380122563,-0.05235782435257201,-0.01984120351402713,0.17230485449469757,0.22270337032160903,0.3118319277554594,-0.16070547195160936,-0.031696116091847415
0.31448998399999994,0.31666666666666676,-0.16123452170742505,-0.02792184712943424,1.1083897751921798,-0.05601153450278134,-0.04534081728918376,0.17230485427618442,0.22597168504437598,0.31641460953658757,-0.16123452170742505,-0.02792184712943424
0.31961996800000003,0.3266666666666668,-0.16180134757872228,-0.032598002895193545,1.1102342766289366,-0.04328844177874543,-0.10778700977670232,0.1723048541122898,0.22915699732515912,0.3255548882825392,-0.16180134757872228,-0.032598002895193545
0.32466649599999997,0.3300000000000002,-0.16193218742640608,-0.03479337405885907,1.1117340034362089,-0.03427478575503264,-0.1861070650495499,0.17230485400620138,0.2319184308683569,0.33000899267818834,-0.16193218742640608,-0.03479337405885907
0.329651072,0.33333333333333354,-0.16244522522347735,-0.033121745287288284,1.1115990050898648,-0.03528723011428869,-0.22948273783231207,0.17230485393666906,0.23432522902615394,0.3346079968733369,-0.16244522522347735,-0.033121745287288284
0.33473932799999995,0.34000000000000025,-0.16267660302280051,-0.03624053613833933,1.1106681920043358,-0.03287079198565953,-0.270404953264603,0.172304853889277,0.23649576515834783,0.33947666141186766,-0.16267660302280051,-0.03624053613833933
0.33979123200000005,0.3500000000000003,-0.1632426037958567,-0.03818984041529383,1.1191737828266495,-0.02703876943465971,-0.3162461654915551,0.17230485385818484,0.23839397636813384,0.3488098273120693,-0.1632426037958567,-0.03818984041529383
0.344692608,0.35333333333333367,-0.16365207288469288,-0.037906727493057346,1.1223173226045413,-0.027929027083566968,-0.33051509390767975,0.17230485383817876,0.24001751813910704,0.35346168214428275,-0.16365207288469288,-0.037906727493057346
0.34949260800000004,0.356666666666667,-0.1638684841661712,-0.04076203995518224,1.1229960429534627,-0.030205992712174102,-0.3248937404481358,0.1723048538249884,0.2414247001230189,0.35788752357553844,-0.1638684841661712,-0.04076203995518224
0.354598528,0.36333333333333373,-0.16407202872445964,-0.04127654077482479,1.1247644785789164,-0.034417211766659336,-0.3751266522813751,0.1723048538154473,0.2426974407642718,0.36250598445386073,-0.16407202872445964,-0.04127654077482479
0.35960691199999995,0.3666666666666671,-0.16437414638435088,-0.04312846644306134,1.1252420807257812,-0.035414120719956844,-0.44311443354863206,0.17230485380927416,0.24366976434967993,0.3672887322623412,-0.16437414638435088,-0.04312846644306134
0.364616064,0.37666666666666715,-0.16520132423265138,-0.04889869289464421,1.1383937212920618,-0.0312437233580181,-0.40115398836686944,0.17230485380516156,0.24441872897151595,0.3768817849443716,-0.16520132423265138,-0.04889869289464421
0.36966643200000004,0.3800000000000005,-0.16570615297568145,-0.04878976332295615,1.1345705934424077,-0.03638537858618929,-0.331650413652034,0.1723048538023998,0.2449275224202223,0.38157959625381876,-0.16570615297568145,-0.04878976332295615
0.37450278400000003,0.3866666666666672,-0.1660824682009733,-0.04890714613176783,1.1226004667399248,-0.0373916469347043,-0.2775720425770768,0.17230485380064553,0.24517054188788154,0.3861810414479903,-0.1660824682009733,-0.04890714613176783
0.37966553599999997,0.39000000000000057,-0.16634492246023067,-0.054841552743592814,1.1147848458619598,-0.03006633272670555,-0.19811763798369905,0.17230485379937666,0.2451810423071276,0.39089892801058573,-0.16634492246023067,-0.054841552743592814
0.38451776000000004,0.3966666666666673,-0.16666183627949185,-0.05942723252945292,1.1194838089955075,-0.02417720171908943,-0.11879470519756627,0.17230485379859456,0.2449376837940647,0.3957322367204028,-0.16666183627949185,-0.05942723252945292
0.38960422399999994,0.403333333333334,-0.16747888500294056,-0.054443974176022536,1.1267356475016448,-0.03399983031529105,0.011937799899862423,0.17230485379803992,0.24443038893387659,0.40468139316986523,-0.16747888500294056,-0.054443974176022536
0.39461388799999997,0.4100000000000007,-0.16789503878164921,-0.05462530607692795,1.1265901543352872,-0.034273374662543994,0.045650674614932794,0.17230485379767888,0.24367025720727276,0.409191771041155,-0.16789503878164921,-0.05462530607692795
0.39961203199999995,0.41333333333333405,-0.1682988105843815,-0.05285666489674057,1.1324111256708604,-0.03090216818718876,0.18420847981509222,0.17230485379743898,0.24266649103317828,0.41437387404563664,-0.1682988105843815,-0.05285666489674057
0.40450496,0.42000000000000076,-0.16876512744553912,-0.04970835809447305,1.1397536159240629,-0.032493845821974746,0.36940683691808135,0.1723048537972824,0.24144297577004478,0.4189270663510421,-0.16876512744553912,-0.04970835809447305
0.40953484799999995,0.4233333333333341,-0.16921929803824912,-0.048119190475210516,1.1384765849720548,-0.03762852691169277,0.38346831981432367,0.17230485379717392,0.2399696360976116,0.4236739176006516,-0.16921929803824912,-0.048119190475210516
0.414611328,0.4333333333333342,-0.16971209776207588,-0.04719852643136235,1.124385655410564,-0.03419108155820195,0.4291797035618056,0.17230485379710114,0.23824737416043779,0.4331969643155016,-0.16971209776207588,-0.04719852643136235
0.41949836799999995,0.43666666666666754,-0.1700954984341171,-0.04631308710631643,1.131924317559183,-0.03247292951582245,0.4122163960970321,0.1723048537970548,0.23639784261949848,0.4378565787939507,-0.1700954984341171,-0.04631308710631643
0.42464012799999995,0.44333333333333425,-0.17066530239689814,-0.04054901195621685,1.131443842371982,-0.04632730511069492,0.3479325851632507,0.17230485379702193,0.2342917370367148,0.4422450713597059,-0.17066530239689814,-0.04054901195621685
0.429488,0.4466666666666676,-0.17098621080102078,-0.039857024083918446,1.1308188199917062,-0.05541226142595622,0.26293834394988347,0.17230485379700156,0.2321262821520954,0.4468995141591963,-0.17098621080102078,-0.039857024083918446
0.43465049600000005,0.4533333333333343,-0.17116457783906575,-0.04284286119318459,1.1348275204554594,-0.05577546099438706,0.24559482021019804,0.17230485379698687,0.22966263656215632,0.45182354855530277,-0.17116457783906575,-0.04284286119318459
0.43980915200000004,0.460000000000001,-0.17219792230883502,-0.0353299367588491,1.1454920860292126,-0.05304298415625811,0.22149589127275118,0.17230485379697724,0.22702843420942503,0.4613313494582555,-0.17219792230883502,-0.0353299367588491
0.44449753599999997,0.46666666666666773,-0.17274431818537933,-0.034365306457997846,1.142318543696946,-0.056464046973138754,0.15071021595770082,0.1723048537969715,0.22448697964438555,0.4661171692015936,-0.17274431818537933,-0.034365306457997846
0.44956889600000005,0.4700000000000011,-0.17314913058415016,-0.03630565636005656,1.138922885169569,-0.05133496534309755,0.12785699537596742,0.17230485379696725,0.22157521844350422,0.47093466085387736,-0.17314913058415016,-0.03630565636005656
