time,x,y,theta,vx,vy,omega,throttle,steering,throttle_filt,steering_filt
0.036492928,0.8482748070145528,0.08451395680604125,-0.5477909339434017,0.6740084788087454,0.003755606778548941,0.09156763505133915,0.1514122635126114,0.3219223618507385,0.1514122635126114,0.3219223618507385
0.041559936,0.850835658692475,0.08291075723398059,-0.5443193799583605,0.6871463079930086,-0.004362916528826015,0.1058069014030365,0.1514122635126114,0.3215301930904388,0.1514122635126114,0.3219223618507385
0.0465504,0.8531925472602485,0.0812964996777278,-0.5433067385901573,0.6964257907034279,-0.008476437686648887,0.08071506244663101,0.1514122635126114,0.3208763003349304,0.1514122635126114,0.3218975701956605
0.05154624,0.8554343810502927,0.08027288905595091,-0.5486228178208785,0.6978867047121069,-0.00829619073421038,0.04867564673123488,0.1514122635126114,0.3202219307422638,0.1514122635126114,0.3218236531393841
0.056487808,0.8606061412431593,0.07697743688564151,-0.5461040809938815,0.6986177595339893,-0.008402529849832727,-0.0039895218436295015,0.1514122635126114,0.319436103105545,0.1514122635126114,0.32169460621348434
0.061563007999999995,0.8630599951662797,0.0752986962098686,-0.5462892795988745,0.709348541140662,-0.013654430260082144,-0.06938964233276038,0.1514122635126114,0.318977415561676,0.1514122635126114,0.3214975155300332
0.066606464,0.8654979965842106,0.07353384256445743,-0.5434092760315377,0.7126573636452995,-0.024268859500539815,-0.19867438116871783,0.1514122635126114,0.3187151849269867,0.1514122635126114,0.32125700320844947
0.071670912,0.8680083377647494,0.07204926245009166,-0.5455181953900023,0.7046411998720965,-0.01855131298481142,-0.23491751891964688,0.1514122635126114,0.3183217346668243,0.1514122635126114,0.320996169948327
0.076638592,0.8705909041135795,0.0705736329291328,-0.5490902765076795,0.7014681194065311,-0.006779555046084989,-0.1850948949986514,0.1514122635126114,0.3179281055927276,0.1514122635126114,0.3207241484107702
0.081644672,0.8753359825570342,0.06742114268782527,-0.5486248910533114,0.7116286948508791,0.0042504358096187925,-0.2659850607030146,0.1514122635126114,0.3177968859672546,0.1514122635126114,0.32043630697118825
0.086597248,0.8778757248720654,0.06597695260502566,-0.5498469186266428,0.7121411660240676,-0.0017616181441811474,-0.35919467749287654,0.1514122635126114,0.3177968859672546,0.1514122635126114,0.32015542529971464
0.091444096,0.8804879410482749,0.06460572804879648,-0.5559916286621451,0.710173240197737,0.0001655521971198009,-0.38091756197022447,0.1514122635126114,0.3177968859672546,0.1514122635126114,0.31989912653084557
0.096473216,0.8832895409355775,0.06284210356686565,-0.5574725034133845,0.7152246277391386,0.0015069999367135674,-0.30794631843549164,0.1514122635126114,0.3176656067371368,0.1514122635126114,0.3196570280265791
0.101537664,0.8857655285830515,0.061303686465924746,-0.558604380266492,0.7276230761184713,-0.007391495529623082,-0.3641843322518507,0.1514122635126114,0.3176656067371368,0.1514122635126114,0.3194304034518304
0.106567296,0.8905630435891347,0.05801170562331837,-0.5600639681139175,0.7314388877605801,-0.022647116922304464,-0.44776052161538366,0.1514122635126114,0.3176656067371368,0.1514122635126114,0.3192267005459807
0.111572864,0.893202726310918,0.05622966802209045,-0.562561037064425,0.7238681309229908,-0.013944295090729255,-0.4281002600885176,0.1514122635126114,0.3176656067371368,0.1514122635126114,0.31904544954952657
0.116433536,0.8957734237303127,0.054306936431557616,-0.5612841669048718,0.7221444308435816,-0.007987220545415556,-0.31158921923715704,0.1514122635126114,0.3176656067371368,0.1514122635126114,0.3188890202463606
0.1214496,0.8983023024955691,0.05250063664639298,-0.5615530549733752,0.7244865825029313,-0.001981612578765903,-0.24049038799623698,0.1514122635126114,0.3176656067371368,0.1514122635126114,0.3187454893452491
0.126697088,0.900921885185633,0.05116144428354233,-0.5653636315586414,0.7285244704290126,0.00031110252903488405,-0.2911104073372011,0.1514122635126114,0.3176656067371368,0.1514122635126114,0.31861274347143886
0.131659904,0.9059602422033128,0.0482359492496616,-0.5710847998721738,0.7227364386725006,0.017140964560432098,-0.2225525607772954,0.1514122635126114,0.3176656067371368,0.1514122635126114,0.3185025354753657
0.13669184,0.9085111531686135,0.04669740973666838,-0.5739964218301452,0.7250657063791944,0.02185195233190273,-0.166903534605921,0.1514122635126114,0.3176656067371368,0.1514122635126114,0.31840375419287337
0.14168767999999998,0.9111485166169936,0.04479271552363119,-0.568030233255465,0.7347720232851944,0.010430843816671406,-0.12385376098508348,0.1514122635126114,0.3176656067371368,0.1514122635126114,0.31831723756915
0.14692288,0.9137267562639573,0.04314890058199706,-0.5700916773048927,0.7459081511728203,0.0014156625367186268,-0.1002326358013138,0.1514122635126114,0.3176656067371368,0.1514122635126114,0.3182371927302713
0.151662976,0.9163592131545604,0.04171058214808053,-0.5719094749036797,0.755438174156298,-0.010835489618602223,-0.13471295610462056,0.1514122635126114,0.3176656067371368,0.1514122635126114,0.31817361641188696
0.15678016,0.9217233524726586,0.03833528600809665,-0.5718524948612309,0.7534337183588301,-0.021256695171322358,-0.3164760577965622,0.1514122635126114,0.3176656067371368,0.1514122635126114,0.31811261464788176
0.161533056,0.9243293250054951,0.036261702241907556,-0.5672920787225326,0.751915813529619,-0.023648301973811247,-0.3799632328927263,0.1514122635126114,0.3176656067371368,0.1514122635126114,0.31806275828173497
0.166529408,0.9268549591258023,0.034289119195595186,-0.5668982626577108,0.7499181152114022,-0.02613436613196615,-0.4607800519180714,0.1514122635126114,0.3176656067371368,0.1514122635126114,0.3180161932335569
0.171527552,0.9292982274716233,0.032318363353882495,-0.5692062203064943,0.7496928988878455,-0.028859276424078137,-0.48705213354674637,0.1514122635126114,0.3176656067371368,0.1514122635126114,0.3179750728761478
0.17642688,0.9318636962577707,0.030795131906590917,-0.5769377254953794,0.7505374460028194,-0.021446792669129747,-0.5062728185324737,0.1514122635126114,0.3176656067371368,0.1514122635126114,0.31793949305761876
0.181478272,0.9370449731858967,0.02765639593705471,-0.5893111732454352,0.7489257778378593,0.010962425494672603,-0.6194575184765662,0.1514122635126114,0.3176656067371368,0.1514122635126114,0.31790702651201297
0.186596992,0.9396822523436116,0.0257465760710671,-0.5875456220857282,0.7545561425082132,0.008784156768118759,-0.7386938367042515,0.1514122635126114,0.3176656067371368,0.1514122635126114,0.3178780270984929
0.191437952,0.9423827015080978,0.02392097234251853,-0.5928147381161999,0.7631148567614693,-0.000250636381550232,-0.8016149837300937,0.1514122635126114,0.3176656067371368,0.1514122635126114,0.3178538956820646
0.196586368,0.945085405118148,0.02227882298072518,-0.5938330125511087,0.7672461272325919,-0.005131060640430133,-0.8176836702225188,0.1514122635126114,0.3176656067371368,0.1514122635126114,0.31783114713229255
0.201582464,0.9477415787653226,0.020579318954320334,-0.5956581324764318,0.7636373895702411,0.0025985731255902937,-0.6974619726235622,0.1514122635126114,0.3176656067371368,0.1514122635126114,0.31781173871708124
0.20643136,0.9529081191694253,0.01668271250367958,-0.6000207583706167,0.7586756143636042,0.005879649342401821,-0.5190954629519062,0.1514122635126114,0.3176656067371368,0.1514122635126114,0.31779511058463134
0.211532672,0.9555352974741336,0.015014700526630632,-0.6018834309861187,0.7607255818031332,0.002114336724540092,-0.43501958012225844,0.1514122635126114,0.3176656067371368,0.1514122635126114,0.3177796074361206
0.216539264,0.9581507404151676,0.013521388702032289,-0.6077027158041712,0.7605434177098257,0.01051704056843952,-0.2605255799694047,0.1514122635126114,0.3176656067371368,0.1514122635126114,0.3177662135971722
0.221439616,0.9607195022059812,0.011778436126969846,-0.6133962066439835,0.7657113619551648,0.020627922107302486,-0.12347430306714734,0.1514122635126114,0.3176656067371368,0.1514122635126114,0.31775464421325195
0.2265248,0.9634680979173428,0.009714656021555863,-0.6122564087691096,0.7724396392101168,0.015725189759139887,-0.04810590217543619,0.1514122635126114,0.3176656067371368,0.1514122635126114,0.3177440190680038
0.231442816,0.9688463759097568,0.0061933779266488236,-0.6119241373234292,0.781313128674613,-0.009725256310690754,0.19642121510542035,0.1514122635126114,0.3176656067371368,0.1514122635126114,0.3177349694621339
0.236549504,0.9716171218343082,0.004322850855035099,-0.6083133172820094,0.7812151472418544,-0.016554831576702702,0.2436780317760432,0.1514122635126114,0.3176656067371368,0.1514122635126114,0.3177266571692725
0.241542784,0.9742278842927081,0.0022289782061477746,-0.6022159871634152,0.7894642306510735,-0.022552967485562226,0.33521601467565604,0.1514122635126114,0.3176656067371368,0.1514122635126114,0.3177195034807411
0.24654144,0.9766945866486937,0.0002477381769321878,-0.5985940086746648,0.7963905958909768,-0.02132425538227165,0.3742986741777443,0.1514122635126114,0.3176656067371368,0.1514122635126114,0.31771318123836184
0.251543168,0.9791560037621819,-0.001593284648063851,-0.5973820660529068,0.7928596524390337,-0.020374291646722654,0.3357284151019607,0.1514122635126114,0.3176656067371368,0.1514122635126114,0.3177075971834608
0.256476032,0.9848044579523482,-0.005587938182486204,-0.5924279077331143,0.790628868348232,-0.022259237898035043,0.22529314027179517,0.1514122635126114,0.3176656067371368,0.1514122635126114,0.3177027364142858
0.26152972799999996,0.9877263327164701,-0.007303861590384311,-0.5948213228420869,0.8005842184780819,-0.018149932465187632,0.07008665810030147,0.1514122635126114,0.3176656067371368,0.1514122635126114,0.31769833303949296
0.26652812800000003,0.9903087117763085,-0.009177296221900014,-0.5955492735520362,0.8028521849194098,-0.01692356356444869,-0.10993333480155157,0.1514122635126114,0.3176656067371368,0.1514122635126114,0.3176944943471045
0.271929984,0.9928660601600043,-0.011173754928979967,-0.5957923079718892,0.794855203471834,-0.016860008775161056,-0.21913442317784443,0.1514122635126114,0.3176656067371368,0.1514122635126114,0.3176908324175977
0.27653824,0.9955920486927857,-0.013179132138787693,-0.5982055372566286,0.784339736183762,-0.01709070204006338,-0.22467282460339097,0.1514122635126114,0.3176656067371368,0.1514122635126114,0.3176881044773552
0.281560448,1.0009028025434583,-0.017218413036961453,-0.59995440080609,0.7899428207889573,-0.015311390229300418,-0.05334415675808458,0.1514122635126114,0.3176656067371368,0.1514122635126114,0.31768545299367495
0.286582656,1.003602980821311,-0.018951746400763126,-0.6041503715640637,0.797060529830686,-0.016392538120620487,-0.007879828823862007,0.1514122635126114,0.3176656067371368,0.1514122635126114,0.3176831140020779
0.291430528,1.006174263397988,-0.020530200388626574,-0.6067365840496262,0.7944038824921063,-0.013952016702048535,0.047136787344679125,0.1514122635126114,0.3176656067371368,0.1514122635126114,0.31768112229799444
0.296620416,1.0089434447394408,-0.022329551153952843,-0.609326376092528,0.7937441851490468,-0.007403442746690912,0.13418281454608613,0.1514122635126114,0.3175999522209167,0.1514122635126114,0.31767923265035186
0.301575296,1.0117597582434104,-0.02477572759453436,-0.6001217088586559,0.7967965091168843,-0.013804699805761341,0.261124257370332,0.1514122635126114,0.3175999522209167,0.1514122635126114,0.317673427480022
0.30643212799999997,1.0171224125676412,-0.028706895946386802,-0.596622645426736,0.8110138924498632,-0.04071764033553496,0.35525989044800615,0.1514122635126114,0.3175999522209167,0.1514122635126114,0.317666632786445
0.31154163199999996,1.0198474405374938,-0.030577560470700645,-0.5944703483585645,0.8060156323822796,-0.0460374476695391,0.4086944004486448,0.1514122635126114,0.3175999522209167,0.1514122635126114,0.3176594394767702
0.31653875200000003,1.0225618768579114,-0.03250634879319764,-0.5925503285536031,0.8025492620243241,-0.03568031742092216,0.4680586805375986,0.1514122635126114,0.3175999522209167,0.1514122635126114,0.31765282098807174
0.32142912,1.025185658549332,-0.03455784514393929,-0.5891473317317057,0.8066503530342386,-0.030073279125110597,0.39251590089620075,0.1539713889360427,0.3175999522209167,0.15224660118452704,0.31764691724051797
0.32658137600000003,1.0277333698519988,-0.036847396480999224,-0.5847529900414647,0.8089873455468869,-0.03265710642069299,0.2850936586543406,0.1539713889360427,0.3175999522209167,0.15283903772062524,0.3176413213669097
0.331426176,1.03343444940923,-0.04060817370122713,-0.5868482671466513,0.8122591377826288,-0.0267708842291467,0.26998998490223136,0.1539713889360427,0.3175999522209167,0.15320477206518887,0.3176366530263233
0.33652415999999996,1.0362550809723514,-0.042479537077232524,-0.5865753098087918,0.8111702170353434,-0.017504007953704707,0.16781343559005943,0.1539713889360427,0.3175999522209167,0.15346531876797173,0.31763228019799705
0.341440384,1.0390132227554605,-0.0444423917176666,-0.5865825680936592,0.810874171009729,-0.0044331124137128985,0.050585335714303764,0.1539713889360427,0.3175999522209167,0.1536311823883687,0.31762855842469934
0.346435712,1.0418228184014229,-0.04631560931504999,-0.5868851812098921,0.8124036939286812,-0.005011823324115238,-0.009232416731925723,0.1539713889360427,0.3175999522209167,0.1537444786079273,0.3176252088703868
0.351552128,1.0445144037070326,-0.04828613053211788,-0.5826195232966755,0.8132391659124887,-0.01858202719041739,-0.01341449441308512,0.1539713889360427,0.3175999522209167,0.15382187645014964,0.31762217821878125
0.35643353600000005,1.0501531897624683,-0.051899620985991164,-0.5843532168961554,0.8169990008201247,-0.02907342195294159,-0.07225481662584704,0.1539713889360427,0.3175999522209167,0.15387053187979885,0.3176196329897591
0.36157171200000005,1.0529968058183157,-0.05401094692825537,-0.587284747720501,0.8192404893036683,-0.02009951133583286,-0.11958110703688041,0.1539713889360427,0.3187151849269867,0.1539050799668537,0.31761726034183024
0.36644672,1.05570905966375,-0.056083492810336394,-0.5897762485058866,0.8221780975158136,-0.0062616460535497,-0.11431686736659193,0.1539713889360427,0.3198291063308716,0.15392663041720492,0.31768511812482275
0.37145792,1.0584146798901846,-0.058271045043173576,-0.5849704496031567,0.8239879712967934,-0.007962411585256905,-0.11520955003882473,0.1539713889360427,0.3211379051208496,0.15394158334317826,0.31784575177914576
0.376436864,1.061235963812479,-0.06019259925388675,-0.5857036754698495,0.8217216682066137,-0.007461104455187605,-0.11919784994996695,0.1539713889360427,0.3230977654457092,0.1539514767016955,0.3181167510619372
0.38160396799999996,1.067184452931163,-0.06355986147239615,-0.5920420056878175,0.8253578025317359,0.00069167393317017,-0.03777806387488298,0.1539713889360427,0.3251186013221741,0.15395833594074512,0.31855374785779206
0.38649177599999995,1.0700346010817006,-0.06542874436656454,-0.5920777665606165,0.8271711281639652,0.008541728892248182,0.07369068283131563,0.1539713889360427,0.3270051181316376,0.15396258930973442,0.3191315429931107
0.391562112,1.0728192097303904,-0.06734165799012617,-0.5918693135021682,0.8285113051520372,0.009450993887930326,0.1438557321391918,0.1539713889360427,0.3296657204627991,0.15396556378053824,0.31987368718396214
0.39646835199999997,1.0755845717070258,-0.0696370259675497,-0.5881966725404126,0.8307523280759095,-0.0024058859011250964,0.10446530374757192,0.1539713889360427,0.3311548829078674,0.15396746908793438,0.3207735928053938
0.40156454399999997,1.0785131766181686,-0.07155206361035991,-0.58734050530094,0.8331625561100124,-0.017699102375400455,0.11895681553992148,0.1539713889360427,0.3331581950187683,0.15396880084117243,0.3218173109236136
0.406549888,1.0844318860107245,-0.07513733793844175,-0.5873559103015245,0.8344888862522095,-0.015195122764862701,0.30015481906310737,0.1539713889360427,0.3362513184547424,0.1539696610107213,0.3229485151540921
0.411556736,1.0872243844250442,-0.0772932409089852,-0.5829504442529299,0.8329792303013418,-0.012467407966506845,0.33554570897901054,0.1539713889360427,0.3385641872882843,0.15397023777468394,0.32424902206702827
0.41654464,1.0898788930613728,-0.07948698436285323,-0.5786101011432221,0.8324395653445059,-0.01836483751173777,0.35971778057241777,0.1539713889360427,0.3422139585018158,0.15397062056684033,0.32567627577290426
0.42163776,1.0927263395711746,-0.08142177774745284,-0.5824885261288966,0.8342169856058664,-0.024836225817342555,0.33648408912411754,0.1539713889360427,0.3479460179805755,0.15397088145994378,0.32732959645355464
0.42655424,1.0957067626513233,-0.08327054539344081,-0.5803165603751061,0.8365440893354547,-0.037408284017115684,0.2910709971577154,0.1539713889360427,0.3525044322013855,0.1539710477930165,0.3292629674410551
0.431556736,1.101479898909314,-0.08715636400427218,-0.5780115939345816,0.8377487225242726,-0.026984060355874518,0.21264446957482866,0.1539713889360427,0.3590458035469055,0.15397116156412477,0.33152076217045773
0.436584832,1.1042467652806278,-0.08938688862133327,-0.575177585938011,0.8390167998115157,-0.0325456406206818,0.12423333538217546,0.1514122635126114,0.3684524893760681,0.15311340256030995,0.33418711935148343
0.441573248,1.1070225400948377,-0.09162413193940952,-0.5719145450612944,0.8410842187718485,-0.03948296855000155,0.14812937295909256,0.1514122635126114,0.3754211068153381,0.152547669944059,0.33741914332287715
0.446696576,1.1098852416117486,-0.09351024162781418,-0.5727784536347684,0.8433310983365179,-0.0419282097411151,0.1387776633632998,0.1514122635126114,0.3850020170211792,0.15215986597328462,0.34122051669153447
0.45157516799999997,1.1127900451291428,-0.09541681989521336,-0.5756261361277648,0.8447604666632686,-0.0401062021147911,0.008021564158863792,0.1514122635126114,0.396976113319397,0.15191671614769658,0.34540269743192503
0.456445824,1.1185942049501638,-0.09954418952749193,-0.5758338940625478,0.8473155327089064,-0.023859933672856364,-0.027409204875113422,0.1514122635126114,0.405226856470108,0.15175291513077702,0.3502421330683493
0.46163110399999996,1.1214592891770285,-0.10160388142958213,-0.5743382773285131,0.8498351170469413,-0.026089407826636723,-0.1177530642882151,0.1514122635126114,0.415772795677185,0.1516351568626009,0.3559092330521621
0.46650124800000003,1.124330744194507,-0.10372690488047412,-0.5731815114349006,0.8508511979986502,-0.03018654822027077,-0.14423441268430734,0.1514122635126114,0.4291345477104187,0.1515627886818615,0.361781091714775
0.471576192,1.127318951290325,-0.10571685545023941,-0.5769019219911922,0.8495839945351934,-0.02316820344751406,-0.08373017470515226,0.1514122635126114,0.4387043416500091,0.15151186156155916,0.36855049737318246
0.47656870399999995,1.1302869377552272,-0.10749940127806648,-0.5812733797703489,0.8495129727298186,-0.011119893292491762,-0.01737600947434692,0.1488674730062484,0.4505144953727722,0.15063171878855572,0.3756888808141519
0.48159782399999995,1.1360322503663751,-0.11166737676056823,-0.5783014137759022,0.848976395057431,0.003977003068970758,0.15741744616253273,0.1488674730062484,0.4647042155265808,0.15004021187197455,0.38335750299017524
0.486443136,1.1390407261372573,-0.11353296900340834,-0.5795844517932931,0.8506268250155612,-0.0008927376627973887,0.10262910685291232,0.1488674730062484,0.4738608002662658,0.1496613928253766,0.3913381914931752
0.49159487999999996,1.1420727182228567,-0.11536720288425227,-0.5783298058939472,0.8541284112727502,-0.0017868295483120804,0.10630033613662725,0.1488674730062484,0.4856978356838226,0.14938872138106496,0.4001265368387948
0.49644198399999995,1.1451734240104745,-0.11719139636429306,-0.5777499492672078,0.8521511985795421,0.009568306333943288,0.2534809619903193,0.1488674730062484,0.5005022883415222,0.14922028504222717,0.40874810045195303
0.501606272,1.148073673307913,-0.11912775536641118,-0.5744490119801133,0.8512708096522589,0.01219996787012202,0.33318114974396495,0.1488674730062484,0.5098586082458496,0.1490988168446498,0.4184271642959534
