x,y,vx,vy,theta,rate
-0.193854968374338,-1.2031429503179836,1.1653612155400337,-0.2460150607507087,-0.2152065844487018,0.2423568526884631
-0.1825879562753384,-1.2059517232965218,1.154994062289722,-0.2581389939515585,-0.2152350544668798,0.207842949974472
-0.1709804727067511,-1.2082741243067712,1.1577606193888177,-0.2529619837828499,-0.2192175046923655,0.0572911567867066
-0.1593638108977516,-1.2105518914667808,1.1589964349270545,-0.2469158807933296,-0.2159411781454558,0.1445004278987706
-0.1476438621256791,-1.2132180356771498,1.163521521303321,-0.2537193389681444,-0.2061233170386034,0.4058294841921673
-0.1360293495823867,-1.2155246622696496,1.1611702880272792,-0.2485023786895519,-0.193856683873539,0.6946071499269668
-0.124449884453695,-1.2180702558930805,1.1646281165549353,-0.2518349849900888,-0.1908029760589373,0.6509671227498827
-0.1129771784749459,-1.2202399313322196,1.1612009846371802,-0.2424581895826577,-0.1966755052383342,0.3420072860694298
-0.101337212768258,-1.2224497789854163,1.1609104965086,-0.2351036735682437,-0.196713478175618,0.2483438151425122
-0.0896755231681043,-1.2245332444329775,1.162244611478228,-0.225384207696443,-0.195099678565125,0.2252036515343993
-0.0777755403778167,-1.2266709081835785,1.1711732775592238,-0.2200615277362977,-0.1869496091288404,0.4087700286555251
-0.0662934782050488,-1.2287204342810107,1.1649179293972622,-0.2127502846785168,-0.1786653656863139,0.555302639367738
-0.0545417512774352,-1.231351090804945,1.168773503116786,-0.2251255568216755,-0.1663331749732885,0.787305721596044
-0.042639394837676,-1.233338997547185,1.1761220248648716,-0.2156455258767149,-0.1688088160934975,0.5520513267561449
-0.0309624203004377,-1.235798803837753,1.1746892879495066,-0.2225666970259397,-0.1659031219787804,0.4964856769304411
-0.019097950101362,-1.2378029135809168,1.179242045221094,-0.215055527314862,-0.1624725138043271,0.465952399672678
-0.0072248320046406,-1.239777123457823,1.1841011852797765,-0.2081359552606396,-0.1608958398578676,0.3724874215508466
0.0047275743101838,-1.2416773144783702,1.1865003636361893,-0.1999381785339136,-0.1550888906926176,0.431383521559296
0.0164240557557365,-1.2434852486448211,1.1855523377086583,-0.1914053680717652,-0.1499264727396496,0.4592477199525033
0.0286444127000898,-1.2445844547789564,1.198302173791429,-0.1635975759449947,-0.1594643633198546,0.0626623164513559
0.0406440633177153,-1.2471552381238888,1.2036122440516974,-0.1867240074523247,-0.1586802048227219,0.0206521763791845
0.0525017221513581,-1.2488947670875443,1.2005993443178595,-0.1799777257838602,-0.1633145464067841,-0.1672748408008607
0.0644969202993872,-1.2507231779430927,1.2024720702898473,-0.1777336610799177,-0.1608432743612462,-0.1069513479195738
0.0767310457268852,-1.252903370859342,1.2114335098539448,-0.1872952553544768,-0.1555243402249277,0.0445199269809148
0.0885808952128885,-1.2546956895991093,1.2065223778171283,-0.1837412685458723,-0.1527331456951833,0.0947061512158995
0.1012986174313735,-1.256579906922229,1.2210976578470565,-0.1827172667757757,-0.1586222881719689,-0.1079706013611152
0.1133028200180953,-1.2590275111452505,1.22574893347821,-0.2016564932876453,-0.1568285083974518,-0.0626777157382899
0.1254738035418919,-1.2607110334735243,1.2266831680535268,-0.1930287361887976,-0.1604826995151745,-0.1673752354941086
0.1379813269019246,-1.26218651695664,1.2372662365601388,-0.1801348235324984,-0.1655854166298261,-0.278476430914206
0.150644635871649,-1.2639195903262348,1.2500622052691963,-0.1763233725243415,-0.1662641855529955,-0.2563518845139038
0.1633144632252495,-1.2665798198599396,1.2602314696646215,-0.2041229985792134,-0.1582820000697428,0.0242183538273011
0.176031539258793,-1.267886242203558,1.2691555614270902,-0.1833589202742546,-0.1576753741123069,0.0437343785748326
0.1885053153323805,-1.2696780659335896,1.2680337945192082,-0.1828563421156928,-0.1576233586138709,0.0620190938670192
0.2015920575044758,-1.2724480929994804,1.2861580589063657,-0.211513266694064,-0.1460837627012181,0.3987063194142118
0.2143063420894465,-1.2740047944860022,1.285479611231293,-0.197425564565355,-0.1475162906314527,0.2967101527750131
0.227066397721226,-1.2765028020779374,1.2901906680300117,-0.2156074675717832,-0.1341549734530904,0.6517477123088001
0.2403888434699636,-1.2783030156371389,1.3084478465210636,-0.2074012186550947,-0.1301441509233141,0.6484211420906042
0.252890480879027,-1.2800263219228678,1.298002945526762,-0.1985662626329888,-0.1193052501596901,0.8397035671708222
0.2664797561923033,-1.2816497678670058,1.3216712067777256,-0.188087535601196,-0.1198794968762991,0.6551565940582877
0.2795404251912834,-1.2831771461681696,1.3235810803749326,-0.1758882807105088,-0.1132886330377454,0.6969338770857801
0.2925267064457153,-1.2846467719283328,1.3219331099488978,-0.1644781048293734,-0.1105174686263516,0.6242606553913868
0.30644613993167,-1.286534227853372,1.3477666117016662,-0.1683816088164277,-0.1031377033022554,0.6836634751533827
0.3199015735496915,-1.287977537031214,1.3512816787887645,-0.1580685793101234,-0.1001116217955407,0.6066548667214687
0.3333999837711501,-1.289393084855047,1.361218342829794,-0.1501032655312242,-0.0986962758847722,0.4878232608111711
0.3471190697491603,-1.2907597227038137,1.371438007407499,-0.1419925372634993,-0.0998728631373055,0.3080361310887177
0.3607745695728305,-1.2920031287167508,1.3771999923174667,-0.1314509279294725,-0.0996497880036257,0.1845066863148819
0.3748383666403345,-1.293178960990243,1.3928699120195511,-0.122290099794931,-0.0984308319857335,0.1317372206557353
0.3889026936165024,-1.294532055179277,1.4031330763841037,-0.120577183962917,-0.0962468219796035,0.1183094718584296
0.4028649357918186,-1.2960614549010607,1.4110122069992832,-0.1252680552540039,-0.0924179874451488,0.1434486421782986
0.4168985937644467,-1.2976150357252103,1.4162042720716654,-0.1311326045255734,-0.0967507833109881,-0.0575206797719538
0.4312051385701445,-1.29870854386442,1.4277233959208586,-0.1219902182286492,-0.0969282576691233,-0.1018992807515972
0.4454200500757452,-1.2999057300796586,1.4325208541243852,-0.1179876579862373,-0.0984904126809845,-0.1707325218162835
0.4600571939988258,-1.301269972595291,1.4501977118502691,-0.1205238840544932,-0.0950558042469542,-0.0742132374701528
0.474470191674395,-1.3028120006690889,1.4555003913432505,-0.1285952902061714,-0.0935786383101817,-0.0416335969773961
0.4890094634783979,-1.3041118807981542,1.4623975176662047,-0.1282613189862859,-0.0939555554476175,-0.0602979440155229
0.5039031914417427,-1.305754828621653,1.4787260486679328,-0.1388286195130006,-0.0937144117181518,-0.0469197495549756
0.5188440468453659,-1.306553442363195,1.4920971108950347,-0.1215399371436692,-0.0974298038355633,-0.151982912447545
0.5342168955034944,-1.307757719465816,1.5146396076449595,-0.1195025094063119,-0.0881342714470765,0.1372861764264583
0.5492684866965168,-1.3092929977719503,1.522286185217815,-0.1283266549746289,-0.0776845907622303,0.4125471036153105
0.5649333324074443,-1.3109466008511026,1.5460719981461406,-0.1379109512882343,-0.0646090924359793,0.7041849487437252
0.5805908258074995,-1.3119568712671448,1.563546100764268,-0.1274517027334438,-0.0566967433482853,0.8130563095547907
0.5961921407460152,-1.313579447992923,1.5747675349592771,-0.1377566637163253,-0.04378753749626,1.035613793701328
0.6121995800529074,-1.314810694494331,1.594141248930842,-0.1342983878711012,-0.0316519510144271,1.1876588546500233
0.6283180291128451,-1.315163294211645,1.611537983891224,-0.1032289880707789,-0.0273260721948572,1.047108252166476
0.6446562391866019,-1.3160790836500569,1.6301630796361328,-0.095746283884631,-0.0202299247596634,1.0110505777398016
0.6604908952867018,-1.3165293478487,1.6286581187799898,-0.0741652015651751,-0.0167862989209833,0.8516088859983997
0.676903671994191,-1.3171327197289,1.6433915994356585,-0.0634157726712262,-0.0083817297225602,0.8757922416035695
0.6936756044355147,-1.3175873159531188,1.6665819417458885,-0.0509518517057404,-0.0084741076643206,0.6446307232368628
0.7101630190354462,-1.3186375815576852,1.6740465183896405,-0.0589040180469159,-0.0095491015937435,0.3973368616554836
0.7269977303460334,-1.318655477221743,1.6882906180251105,-0.036237674748995,-0.0160562384446077,0.0492395696547414
0.7441621618627884,-1.3187444768044678,1.701162158939727,-0.0206047396857183,-0.0236320155874048,-0.2634358451685448
0.7610760747670933,-1.319855036754732,1.7163950985426062,-0.0407282248742299,-0.0206109413798639,-0.2052385007259198
0.7783530237114021,-1.3202289415988766,1.7315667993453157,-0.0347703781973538,-0.0244698677600843,-0.3440898141323092
0.7949923564029905,-1.3205144911238722,1.7233671831469786,-0.0304862070937783,-0.0165044652516745,-0.0699309139148532
0.8122210548441532,-1.321025280927037,1.7313370609034977,-0.0322640412793081,-0.0084717017297733,0.1482818332184754
0.8295487147304463,-1.3207923456967934,1.740356163236913,-0.0116777772810884,-0.0022372910007905,0.2759201595991326
0.846843988207963,-1.3212643789921827,1.746102414798385,-0.0158839341689547,0.0081892481283357,0.4892258035822188
0.8646041570787487,-1.3209683714925815,1.741669381115894,0.0029175401395149,0.0128106991972199,0.5176446510087954
0.8814868680079745,-1.3208393645121728,1.7523200133931611,0.0118952481131524,0.0151972435054739,0.4731487589597908
0.899105678376627,-1.320389215048401,1.7580119768289124,0.0284999311114094,0.0246272481538936,0.6191136931725416
0.9165383492978516,-1.3208480784458192,1.7613209933700922,0.0142289554368592,0.0357228505599885,0.7839347515562134
0.9340513163954932,-1.3201305801140526,1.7653827263026456,0.036581056702174,0.0314285791622881,0.4772387472696538
0.9516147542269472,-1.32002182165031,1.7653015876899487,0.0350306091588513,0.0429659764939828,0.6837120579853588
0.969233735895326,-1.3186602608886546,1.7704956787745747,0.0721581089930087,0.0470876244226801,0.6216360086313917
0.9866994624856829,-1.3184137057388092,1.768380892058376,0.0663614474902506,0.0634755104878558,0.9429451007267352
1.0044555078921569,-1.317419748310225,1.7736522289445968,0.0834905381216322,0.0639967617196009,0.7447920208333857
1.0219327736382793,-1.3164286035749924,1.7687980587049446,0.0963646292066621,0.0659825624878264,0.6080518585783001
1.039525892777335,-1.3157456799747136,1.7681074765946496,0.0964473712339532,0.0738436073620596,0.6674932985251968
1.0570489039271882,-1.3146780503788875,1.7652277580706803,0.1061324689318994,0.0776256218898909,0.6082807463264582
1.0746964695651524,-1.313195786248187,1.765117759987895,0.1273017757780352,0.0765731873773231,0.3899604960991484
1.0925377424068194,-1.312303295787153,1.767087050825055,0.1241530784900254,0.0837644934488815,0.4702540125181687
1.1102261883155813,-1.3105504264342054,1.773749695027906,0.1480328659020408,0.0818643803517298,0.2587383002047013
1.1280826550054848,-1.3090229192428924,1.7751852662847167,0.158148421070636,0.0797827309989393,0.0903753760264923
1.145790756658082,-1.307584787017159,1.779534013831814,0.1646728006530795,0.0722204613561993,-0.2219477360923726
1.1634385688704134,-1.3063652249931732,1.776565334764799,0.1602557456512156,0.0707778328833749,-0.2845411170475695
1.1810417393430268,-1.3043850827258965,1.7728452202012297,0.1787694974437234,0.0659857047084973,-0.4256301462221805
1.1988957585222029,-1.3033132644446404,1.777550053981636,0.1645350156726943,0.0689620636770928,-0.2988673429763429
1.2168194309422062,-1.3022822834693688,1.7821112142955784,0.1508414854756807,0.0677089261871805,-0.3009493820707813
1.2342929106986342,-1.3005026703263427,1.773764131134309,0.1614668481885973,0.0568249398508117,-0.5720169123140277
1.2521311458099722,-1.2989594941164024,1.7746648064220858,0.1624030593053539,0.0561844740230789,-0.4958488553953301
1.270299699055652,-1.2976995016874349,1.7904144109308942,0.1539965557668967,0.0649487469901582,-0.1473455868792057
1.2882019961273363,-1.2966205621288729,1.793299083525842,0.1407115740004303,0.0680313909440751,-0.0078910189096244
1.3064252912646246,-1.2944131939475358,1.7897933272748614,0.1642909634668264,0.0722214508568997,0.1343513716959952
1.323939548383967,-1.2930093102775355,1.7927645503553684,0.1607439661453509,0.0876410684803753,0.5909182581246808
1.3417265849587885,-1.2904864783579222,1.7901879714534168,0.1912654773457719,0.0945916442922656,0.7008954053216022
1.3598704185520467,-1.2889505409097015,1.7982660274088405,0.1847457725403334,0.1177464894654317,1.265102294579989
1.3776607290148826,-1.2862898150736255,1.794263094007966,0.2142094309551467,0.1295101226758084,1.383188022619333
1.3951657164868152,-1.2835271118274676,1.7802406678598537,0.2402621197454917,0.1487125367527529,1.683278659716262
1.4131204405974749,-1.2805553964092509,1.784414391068365,0.2679605504319101,0.1675824940871453,1.895524357423675
1.431045261311765,-1.2772975026719586,1.7864606112019747,0.2973158195319695,0.1819338067898388,1.9154993772485964
1.448644900090186,-1.273940127933014,1.7778687257496957,0.3232579584733997,0.1984206453778555,1.967055057556505
1.466006462740005,-1.2690625072403028,1.763994709733202,0.3871270857439624,0.2162306423350248,2.0519929007824063
1.483558771727613,-1.265332917575921,1.7587045994581627,0.4035626327224745,0.2413862157559105,2.311752200623631
1.5009718294498124,-1.260306009959886,1.7497586767122018,0.4535636572352886,0.2634363600963067,2.4242211107462683
1.5184001317255236,-1.255566075877263,1.7428949178909043,0.4829373944307484,0.284690943099703,2.461668581939056
1.5356191532233543,-1.250036605045606,1.730012811790555,0.5278701878752673,0.3082730208360192,2.540052560434712
1.5522174919669791,-1.2438487222317425,1.7067257172590045,0.5816338952150801,0.3337815955806892,2.653102969611563
1.5691114256778769,-1.2381492956124194,1.694164243919872,0.6068240956827035,0.3652107367265575,2.899172627909961
1.5861095869877857,-1.2312832522872337,1.6844961294339094,0.658999868962704,0.3885403251409926,2.8387669642130406
1.6021252157761392,-1.2240022895886966,1.6534842152772709,0.7110293675485925,0.418999912543703,3.003538379277109
1.6183995721036175,-1.217450520970606,1.6352141059128222,0.7263555316413814,0.464033093834078,3.557119217579777
1.634333857818819,-1.209829976201534,1.6102113119962411,0.7663441588887918,0.4965447935642405,3.624456396615975
1.6497195935177855,-1.2010979751251674,1.5761305157565069,0.8273535632000748,0.5026066848520585,2.921127645175193
1.6650615275444398,-1.192970426325156,1.5467635069614958,0.8587355311248261,0.5329317020145828,2.982903185433187
1.6795898088369623,-1.1835018106864716,1.5017529230930553,0.9179476349710948,0.5573956917779778,2.8683980254363166
1.693705465984873,-1.1737457205872597,1.4570254425406133,0.9660483986981,0.585716658822842,2.9039911628954584
1.709110587742453,-1.164729559859795,1.4611340962827462,0.9816108796274046,0.6202014445677355,3.0928077979020827
1.722082104938795,-1.1535368124878458,1.3917984839477004,1.0557395550976227,0.6421318015170583,2.87634864598506
1.7361652403566412,-1.1438107094299683,1.374739080602722,1.0669219755192734,0.6797852064857997,3.1490146588129853
1.7490614599026757,-1.132842852087882,1.3247452181653083,1.1092334763638934,0.7130790193205618,3.2354181307674232
1.7616753462020494,-1.1211045974749143,1.2799043527942289,1.1617343589926732,0.7373014300053657,3.0469018840658384
1.775122346013209,-1.1102585296153855,1.271349877903925,1.1739511601641608,0.7710011510597876,3.1616637175795392
1.7861673417222186,-1.097493841451911,1.1962856085642288,1.2356931847553918,0.7964036481428188,3.0065948670749005
1.7979409042242247,-1.0852702933714602,1.1587459825436872,1.2643395912168405,0.8303071856536901,3.128105065200783
1.809012587531421,-1.072655040587367,1.1122263791769331,1.2961112361080886,0.867219962413623,3.3148731791520243
1.8194373181675787,-1.0594162263909912,1.0596592644779692,1.337433371998162,0.8923447516584636,3.118925628978859
1.828656311537475,-1.0455242834394434,0.9816281189249914,1.384452682958405,0.91774140828981,2.952504058056492
1.8380241277371463,-1.0316739777935495,0.931040797167904,1.4201025563882193,0.9473224398717894,2.945335569450334
1.8476917762153235,-1.0178863110904837,0.9003940576577008,1.4398804194122392,0.9775940515409228,2.950095670916579
1.8561671837898184,-1.003315409192722,0.8458711295372963,1.4744753071633778,1.0075187944070778,2.942008139549433
1.8639868806249944,-0.9891509749653512,0.789109939694865,1.4907390444997273,1.0377284597649992,2.9616438720499
1.8710985887004077,-0.9741933538414548,0.7219843868280359,1.5159697192954669,1.0652792850097583,2.8814770389817186
1.8789426944364849,-0.9589070054779294,0.6910507834226848,1.533413382630872,1.0952103361482153,2.876805938893615
1.885051318975319,-0.9442880311859082,0.633687491242355,1.5501893998347327,1.1256301257928445,2.93601375457785
1.891159033915724,-0.9288717034232242,0.5853761991570592,1.5712827845009274,1.1445917627173534,2.6236909348937507
1.8973947143127128,-0.9136854983865728,0.554441796677816,1.577247193528153,1.1785912833602112,2.8122289196510737
1.902537120276142,-0.8979955281653299,0.5029565105694881,1.5946012487183905,1.2098624735996295,2.893038002201732
1.908273757588403,-0.8819882206858862,0.4786164556485287,1.598073571319096,1.246459184908661,3.089312748372468
1.9128615610997388,-0.8667501734379226,0.4423784574815399,1.6094385357044467,1.27887744607582,3.1939974207085533
1.916266921618939,-0.8508670775892134,0.3751251929308938,1.617340322906835,1.307465536317438,3.134591866480301
1.9196140870131264,-0.8350483150322894,0.3248159700178292,1.6216163857264685,1.3335302392519215,3.005788323510489
1.9229090856460505,-0.8188793433086262,0.2864197600055247,1.631624889772151,1.3592648827871017,2.8794175203504
1.925112186073436,-0.8027876126758053,0.2277623275991945,1.6373505570991949,1.3940982293104691,3.0431579389919827
1.9268912727008805,-0.7866443126492055,0.1721661978319668,1.641642857398564,1.415484579853178,2.776834327643084
1.928084882539319,-0.7706980429889027,0.114736604137059,1.6368754420467202,1.4479067871684388,2.8890236592664915
1.928962036509892,-0.7543594010652523,0.0641844838514304,1.6437486013788751,1.480886988004414,3.0038076721102027
1.9296730434601816,-0.7382769545211141,0.0243630049474725,1.640270193199356,1.524476026256948,3.4003197770822067
1.929909132960389,-0.72198130184341,-0.016939804623284,1.6429216920867993,1.5514366317819066,3.2476895005504454
1.9287540258647773,-0.7061608744357863,-0.0879202979271405,1.6291006275535698,1.58005488828391,3.157861258879945
1.927702480554213,-0.6900787486309474,-0.1363612932976721,1.6251572497402362,1.6107342254081125,3.143859442811723
1.927035810870132,-0.6738867289289572,-0.1567896868004205,1.625180874982112,1.6417108438901755,3.14225934870702
1.925160552891532,-0.6578822688829089,-0.2056881181627101,1.6185230201635157,1.6689941856193624,3.0293261184896947
1.922256369523874,-0.642056637760841,-0.2705749896722152,1.6060806619710286,1.692733671464042,2.82662389234612
1.9194611613328163,-0.6264582366957926,-0.3154072500230488,1.592343071323437,1.721017049340405,2.7778371890073528
1.9159913736476344,-0.61047489889823,-0.3654157720926076,1.5878419867337326,1.7487663560002311,2.74295052629582
1.912362539933036,-0.5954355903718922,-0.4067631735833746,1.561947663901002,1.783099488255672,2.9116911912675607
1.908029598857476,-0.5796378857303175,-0.4550667603493294,1.5615381806779756,1.8081535957297368,2.7872053464334576
1.9041683804182588,-0.563535286417064,-0.4745933621093246,1.570652941533626,1.8342283148807168,2.709280101634714
1.8982656823784032,-0.5485816437944231,-0.5455800159097156,1.545337287689999,1.8572068304854656,2.571446046821944
1.893409658102901,-0.5327492479568204,-0.5665623402745034,1.5508536876934635,1.8829088995090613,2.524400184573716
1.8883581759109624,-0.5171384634352058,-0.5847766903865351,1.5469263937040407,1.919362291606332,2.795871829427357
1.88169330623168,-0.5025566875493753,-0.6427832059130419,1.5190968170884995,1.9348298577696903,2.4284166861799803
1.87496541076106,-0.487389580628417,-0.6865058689582829,1.5046890159963289,1.968993348823527,2.6532345928249
1.8678808235073652,-0.4727976824590461,-0.7319206191408121,1.4897041834818738,1.9929163631409883,2.573938375977611
