time,x,y,theta,vx,vy,omega,throttle,steering,throttle_filt,steering_filt
1.0129504,0.06587959261664306,0.0397298130452746,-0.06387803941704107,0.3597611112098399,-0.0036191717758004022,-0.14795901591690355,0.1669896990060806,-0.0,0.1669896990060806,-0.0
1.017938304,0.067376940021836,0.03940469806809747,-0.06146950790652994,0.3724886485275879,-0.007168983053813658,-0.11497544073427543,0.1696393638849258,-0.0,0.16787078394260405,0.0
1.0228102399999999,0.06898419996936288,0.03938030137153325,-0.06406066258109444,0.3848417535541939,-0.007134311824280198,-0.13331108651668536,0.1696393638849258,-0.0,0.16844521116192904,0.0
1.0280928,0.07221990326123166,0.03919967861941534,-0.06669124591404874,0.4022416168066268,-0.002657286139335667,-0.12954346747589612,0.1723048537969589,-0.0,0.16980446408180264,0.0
1.03281728,0.07397843591406705,0.03908204906102039,-0.0685319609705477,0.4134794679524805,0.0008869319589760977,-0.1729136881949476,0.1776841729879379,-0.0,0.17228629922399313,0.0
1.03793216,0.07573916652176928,0.03889061756428423,-0.06914809907048447,0.42595876417449413,-0.006321468608935492,-0.2471863383881801,0.1803984194993972,-0.0,0.17505246734094373,0.0
1.042921088,0.0774145520374075,0.03870782085366465,-0.0694267571192011,0.4374773141916231,-0.010085654969613507,-0.27997987231051896,0.1831293255090713,-0.0,0.17773879159874373,0.0
1.0479648,0.08118421054798736,0.03847659575978644,-0.07133481846787681,0.4504817730557184,-0.010955603610406142,-0.25543738711266023,0.1831293255090713,-0.0,0.17955134497007214,0.0
1.052894848,0.08304431396404076,0.03817203367234682,-0.07107257932560174,0.4656420756257813,-0.009352503317805825,-0.2522748184197501,0.1858771294355392,-0.0,0.1816304397068993,0.0
1.058027136,0.08507429531007335,0.03802341899677664,-0.07412169157828608,0.48051279567566085,-0.012070395120126271,-0.2583372334223039,0.1858771294355392,-0.0,0.18308345535583406,0.0
1.062929024,0.08690201001031288,0.03780961232282975,-0.07388494217906949,0.48938628303174525,-0.018397497522624852,-0.2601872432958301,0.1886420100927353,-0.0,0.18489994953997801,0.0
1.068140928,0.08898135671736274,0.0376526546034048,-0.07731038660004153,0.50018443149252,-0.01419703783813996,-0.2318871447213505,0.1886420100927353,-0.0,0.1862001668975219,0.0
1.072936576,0.09333137238896987,0.037165562323719155,-0.07910760789747773,0.5206872856080027,-0.011175110484193703,-0.20194676213535717,0.1914242058992386,-0.0,0.1878703437102222,0.0
1.07783232,0.09548681765725955,0.036841821611580554,-0.07924085577690043,0.5358403083403162,-0.012109215993421352,-0.18876552663706736,0.1914242058992386,-0.0,0.1890302636761358,0.0
1.0830009600000001,0.09776806277613333,0.03672764605220295,-0.08212025648354171,0.5452546459006572,-0.011692324782595381,-0.14781618387262874,0.1914242058992386,-0.0,0.1898551587116037,0.0
1.0879366400000001,0.09993387953040334,0.036487064647014636,-0.08030526842766061,0.5548417786666836,-0.01030496912800912,-0.08033589303198649,0.1942239105701446,-0.0,0.1912926761231479,0.0
1.092918912,0.10226940589921832,0.03629585713066742,-0.08233373296642554,0.5667536737338028,-0.008333411503273245,-0.03399224747093383,0.1942239105701446,-0.0,0.1922662899438617,0.0
1.097931392,0.10713496778421122,0.035848612465266744,-0.08061050988929441,0.5883540706612126,-0.015427938839996403,-0.10465893154490868,0.1942239105701446,-0.0,0.19292045889298373,0.0
1.1029216,0.1096372458905768,0.03559413894769619,-0.08188739080497065,0.6008980764290266,-0.01563971130801029,-0.07184019406587815,0.1942239105701446,-0.0,0.19335409189211583,0.0
1.107947136,0.11208966002637175,0.03520984570986352,-0.0796691062054471,0.6090714502631305,-0.016481305454277555,-0.07712064433706516,0.1942239105701446,-0.0,0.19364551223077622,0.0
1.112817792,0.11461368163157445,0.03494811528729619,-0.07889050040257928,0.6163353078905239,-0.02198346986490275,-0.10714128382839534,0.1942239105701446,-0.0,0.19383332418691188,0.0
1.117864576,0.11722476240614708,0.03460597704180481,-0.08042551854328828,0.6256338973437237,-0.025607003952569183,-0.14694157683935166,0.1970413476228714,-0.0,0.19491267094346026,0.0
1.122936192,0.12248806683827924,0.03409733898431352,-0.08543554160251965,0.6481258832780327,-0.017600315475671077,-0.19273228806614215,0.1970413476228714,-0.0,0.19563239299053548,0.0
1.127925376,0.12510420149734658,0.03362750188722881,-0.0825113429455282,0.6581675300847679,-0.020011246074808326,-0.23688716450663352,0.1970413476228714,-0.0,0.19610102858442724,0.0
1.132918144,0.12792509801546975,0.03339438896326812,-0.0869839140235733,0.6671070139930201,-0.019399496184658405,-0.35173729123586306,0.1970413476228714,-0.0,0.1964140149047562,0.0
1.13791168,0.13069663825568859,0.03308450262828525,-0.08547679543307574,0.6777525503754327,-0.022346363532454474,-0.4143922935255198,0.1970413476228714,-0.0,0.19662285547221528,0.0
1.1428256,0.13358878246994918,0.0328243448663484,-0.09063585476751701,0.6897973765104234,-0.014814803199895725,-0.3953708006774741,0.1970413476228714,-0.0,0.1967599512688121,0.0
1.1479696640000001,0.13931655288556058,0.03209639696891624,-0.09117974663649697,0.7066362173624713,-0.012686606430431593,-0.3722429371966793,0.1998767256736755,-0.0,0.19782881040295738,0.0
1.152994944,0.14229012548097325,0.031727486247952796,-0.09209185180649104,0.7160639330170412,-0.012682946644500183,-0.31388772548615,0.1998767256736755,-0.0,0.19851490024639967,0.0
1.158025088,0.14529702187103236,0.031494673515761976,-0.09871066549858476,0.7261894922442149,-0.006697908012794169,-0.2654897367560135,0.1998767256736755,-0.0,0.19897157877987026,0.0
1.162996352,0.14825670237594085,0.031154439969193887,-0.09859162465117688,0.7359877758148524,-0.005733215312018134,-0.24966991942557695,0.1998767256736755,-0.0,0.19927156039106264,0.0
1.167911808,0.1513469399393884,0.03083420381383099,-0.10058349267553801,0.7461031439694843,-0.005201793321959074,-0.20707547624593262,0.1998767256736755,-0.0,0.19946987127902338,0.0
1.172927872,0.15765746149683804,0.030166285500170937,-0.10031404799129806,0.7656605729358501,-0.009839657024742139,-0.13827418630412935,0.1998767256736755,-0.0,0.19960592512450714,0.0
1.177927808,0.16076638007264912,0.029773479683440105,-0.09795436772715149,0.776865823071212,-0.014919621960441463,-0.0027651091342655917,0.1998767256736755,-0.0,0.19969619081881426,0.0
1.182929536,0.16411242671339552,0.029378225462439442,-0.0988429384398426,0.7866582223732677,-0.015708070875959892,0.10970149497055055,0.1998767256736755,-0.0,0.19975638990138328,0.0
1.187812992,0.1673494819959014,0.029058477386843005,-0.10015605007706174,0.7941346685398772,-0.018582989967138284,0.18679637017488854,0.1998767256736755,-0.0,0.1997955668646643,0.0
1.192953984,0.17058564618268904,0.028546685210824523,-0.0984474102642583,0.804018425329982,-0.02162180091707833,0.30527575867313494,0.1998767256736755,-0.0,0.19982338265052138,0.0
1.198096,0.1773520594101915,0.02774676037635491,-0.09783939157368238,0.8158890018182003,-0.03191361919070967,0.34092959049350474,0.1998767256736755,-0.0,0.19984166869575784,0.0
1.203041408,0.18075321229645103,0.02720568569144372,-0.09321657474201395,0.823910476587807,-0.033265737396724046,0.3577114608069716,0.1998767256736755,-0.0,0.19985322676636116,0.0
1.2079630080000001,0.18422051672415635,0.026869097707804504,-0.09402986913334743,0.8319967900083843,-0.03134768914596418,0.35796354881896014,0.1998767256736755,-0.0,0.19986093691451037,0.0
1.21291968,0.18757707992217673,0.02620580749340583,-0.08802223021772981,0.8404613830479635,-0.043127652675461106,0.2970693479607755,0.1998767256736755,-0.0,0.19986615422787493,0.0
1.217949312,0.19106918592553437,0.02572902805451784,-0.08633258700376878,0.8457997105244877,-0.04591945113322707,0.2094281451381346,0.1942239105701446,-0.0,0.19797426027769374,0.0
1.222920064,0.1982270830214481,0.024842824811887453,-0.0819367690389079,0.8592157461267873,-0.04967680520431157,-0.02088385832075595,0.1942239105701446,-0.0,0.1967314563903938,0.0
1.22805568,0.20177350193374377,0.024231911358022596,-0.08207023915429712,0.8658568557815374,-0.047517873586371884,-0.16711139358581126,0.1942239105701446,-0.0,0.19587293689471347,0.0
1.232943232,0.20525545524980873,0.023797619598751145,-0.0841154103061843,0.8740631861352642,-0.04942079165319882,-0.3055264863268682,0.1942239105701446,-0.0,0.19533562343400018,0.0
1.23800384,0.2089760764758799,0.023278020642497257,-0.08725666510087393,0.8788754119053703,-0.04370138833863471,-0.461147285859151,0.1942239105701446,-0.0,0.19496056056649816,0.0
1.242922112,0.21253697798580531,0.022806633424031802,-0.09010022221622194,0.8830476297923486,-0.031887378193414154,-0.5507438356838983,0.1942239105701446,-0.0,0.19471902422977377,0.0
1.247933824,0.2199519826072623,0.021817868226900947,-0.09948160195933475,0.8963605999852474,-0.01396448124322264,-0.6670471644548402,0.1914242058992386,-0.0,0.19361817885877625,0.0
1.252928896,0.22366412567478816,0.021487974085730194,-0.10308325533616802,0.901193707242674,-0.007384312648496952,-0.6592463493132479,0.1914242058992386,-0.0,0.19288757533217998,0.0
1.25797568,0.22747111713407192,0.021099331110550998,-0.10697520447621223,0.9073519783091528,-0.0035701875958897,-0.6301362207821126,0.1914242058992386,-0.0,0.19239522136949613,0.0
1.262989184,0.23121681800242408,0.020707286508266618,-0.10965141309854953,0.912030200543776,-0.0012158282541485617,-0.5911447884476853,0.1914242058992386,-0.0,0.19207067537321626,0.0
1.268065664,0.2349628604046108,0.020364712692191828,-0.11224581714388915,0.9207830605736794,-0.003798492225452067,-0.5980340560489028,0.1914242058992386,-0.0,0.19185188941619905,0.0
1.272974976,0.2425646201738724,0.01929136607509753,-0.11208014450924875,0.9349255213996372,-0.007045658920593819,-0.511372922643782,0.1914242058992386,-0.0,0.19171191396139797,0.0
1.2779306240000001,0.24648173220336753,0.018859159996577377,-0.11453630162766437,0.940045673949115,-0.0026369301213116517,-0.4739184452368312,0.1914242058992386,-0.0,0.1916168619692097,0.0
1.282928256,0.25048375563202185,0.018210179399044957,-0.11459814883831498,0.9442753942224363,-0.004423901992946731,-0.43046136638180693,0.1886420100927353,-0.0,0.19062571430700118,0.0
1.287919488,0.2544078930802282,0.017763872774032113,-0.11694709191657626,0.9511813769274703,-0.0018669741751760366,-0.3955178505572698,0.1886420100927353,-0.0,0.18996563911014924,0.0
1.292967296,0.25842954219200975,0.017534538800815545,-0.12146194755852235,0.9563953884558678,0.00015664340861671854,-0.4229020402249155,0.1886420100927353,-0.0,0.18952021076727363,0.0
1.29800512,0.266241818288935,0.016574148097563933,-0.12607207556748534,0.9641677963287051,-0.0011380354864139294,-0.5879762288783965,0.1886420100927353,-0.0,0.18922526273827328,0.0
1.302842496,0.2702130786291043,0.01601698801418481,-0.12742902830951763,0.9683499812352632,-0.008646305343608522,-0.6555636574302579,0.1886420100927353,-0.0,0.1890371685816425,0.0
1.307917952,0.27421319167999253,0.015382917909894793,-0.12865675736527304,0.9738801191751307,-0.016152040766851283,-0.7265924102351256,0.1886420100927353,-0.0,0.18890346128007748,0.0
1.312922752,0.27823952571419497,0.014716654402012565,-0.12949633165136198,0.9813768636964437,-0.01838257501757229,-0.7036902631401061,0.1886420100927353,-0.0,0.1888162272199168,0.0
1.317950592,0.2824403735381365,0.014119649926016858,-0.13458817318469407,0.9855795525843453,-0.01597648553171725,-0.6922767021925771,0.1886420100927353,-0.0,0.1887578314972016,0.0
1.3229216,0.29049637479537627,0.01292908682299338,-0.14196491653209442,0.9922654453907431,-0.008802118560789557,-0.6545664719008462,0.1886420100927353,-0.0,0.18871944822199005,0.0
1.327926144,0.29458434278498236,0.012306754920138354,-0.14726317604819528,0.9926367143623479,-0.008607251003563096,-0.6539166580165184,0.1886420100927353,-0.0,0.18869361205364785,0.0
1.332950656,0.29871781600248853,0.01164641502934138,-0.15088638508340324,0.9951757339952042,-0.015959090001947184,-0.663491750324943,0.1886420100927353,-0.0,0.18867632707552592,0.0
1.338031232,0.30280843835325505,0.011002731690015416,-0.152027405809104,1.0003691909585735,-0.01988046204587923,-0.6087161056007865,0.1886420100927353,-0.0,0.18866470373958202,0.0
1.342933632,0.3068715799189783,0.010398877277586283,-0.15626173177218217,1.0081922212729368,-0.01373622808704695,-0.5307146768468312,0.1858771294355392,-0.0,0.18775365012170606,0.0
1.348044416,0.3150424602132188,0.008528739381502505,-0.15707821383159448,1.0191992266487984,-0.015587268574471458,-0.33713489440799366,0.1858771294355392,-0.0,0.18711428399513735,0.0
1.352915328,0.319321601460659,0.007916577347557643,-0.15894995674264223,1.0240206618751546,-0.01964010931800578,-0.26998619307180216,0.1858771294355392,-0.0,0.18671254592912392,0.0
1.358123648,0.32372893560825744,0.007375207782743624,-0.16002332219260396,1.027132355086132,-0.021130953784121168,-0.277437676873994,0.1858771294355392,-0.0,0.18642247150033275,0.0
1.362929024,0.32795993140704166,0.006561214549095073,-0.15986046686885835,1.0267898847083428,-0.01564763740729137,-0.24992460886506554,0.1858771294355392,-0.0,0.1862477665890028,0.0
1.3678304000000001,0.33214553415776843,0.005889418882398618,-0.16192628349269977,1.0238884865052738,-0.01364951083208487,-0.22114784576508226,0.1858771294355392,-0.0,0.1861266577857565,0.0
1.3729145600000001,0.3363345373892014,0.004926136845587492,-0.16001387837419045,1.0195094956492372,-0.02499308448075114,-0.25922653761112646,0.1858771294355392,-0.0,0.18604208164862043,0.0
1.377814656,0.34453861357089344,0.003384503557047329,-0.16278033913721224,1.0213159878904396,-0.027650058024845124,-0.2575267207731169,0.1858771294355392,-0.0,0.18598819620331974,0.0
1.382817408,0.34864271332883984,0.002645863904810237,-0.16556540421072086,1.0232754410024159,-0.02623360435161645,-0.3277728899259816,0.1858771294355392,-0.0,0.18595115357034323,0.0
1.387917184,0.3528870238443402,0.0017309546053853782,-0.16563349592223897,1.0276643074961835,-0.023510214418651386,-0.331686833998937,0.1858771294355392,-0.0,0.18592598646993694,0.0
1.392948864,0.3572217652021584,0.0009858444906196099,-0.16732505566801592,1.0346634827913954,-0.01705260987422338,-0.34608551049198305,0.1858771294355392,-0.0,0.1859095976057477,0.0
1.3979808,0.3656914373045395,-0.0007495876113373961,-0.16833151382403422,1.0418739727270698,-0.012781128289675328,-0.2893339588092646,0.1858771294355392,-0.0,0.18589870575544595,0.0
1.402791808,0.37004686187092073,-0.0014076539145983567,-0.17424835166666774,1.0434251263175454,-0.010908556933392205,-0.21232067256339587,0.1858771294355392,-0.0,0.18589178549893381,0.0
1.407907456,0.3743414746244276,-0.002087363371819494,-0.1756810138540068,1.0475506009409674,-0.020716853314378697,-0.19652303328150228,0.1858771294355392,-0.0,0.1858867871481743,0.0
1.412912,0.37851614390985594,-0.002839096962815232,-0.176510090254979,1.0522475994880993,-0.02085962091078361,-0.1291730435540128,0.1858771294355392,-0.0,0.18588356498498618,0.0
1.418001792,0.38280573844933585,-0.0037014130877685175,-0.17715434591846524,1.0542984813258436,-0.018127301122233343,-0.022223518687602507,0.1858771294355392,-0.0,0.18588138127778012,0.0
1.42290752,0.3871378697426992,-0.00476086919735848,-0.17644273415787914,1.056326391502456,-0.025766845981853085,0.03753719770213894,0.1858771294355392,-0.0,0.18587999071901126,0.0
1.427977344,0.3958654231174162,-0.006602204862604067,-0.17483053121380987,1.068434735071519,-0.04178781299256465,0.2227020020662443,0.1858771294355392,-0.0,0.1858790236387701,0.0
1.432927616,0.4002245739485591,-0.007434098176661278,-0.17438300350536107,1.071436377817218,-0.04692572517769177,0.1858914581859724,0.1858771294355392,-0.0,0.1858783985173557,0.0
1.4379321600000001,0.40456266679844916,-0.008356609824900102,-0.1704163138166095,1.077048036508007,-0.045961425621823766,0.1538039216986179,0.1858771294355392,-0.0,0.18587797510563633,0.0
1.442930048,0.4089816385742862,-0.009354850444541969,-0.16888653597319436,1.0806057708358259,-0.043444275002144504,0.16068158067415575,0.1858771294355392,-0.0,0.1858776933346743,0.0
1.447930752,0.4177297279334506,-0.011574897641372955,-0.16378044328046482,1.087510213961634,-0.057980393224704836,0.1405462371778348,0.1858771294355392,-0.0,0.18587750534183026,0.0
1.452939392,0.4223219328729123,-0.012388715590543019,-0.16573489581881784,1.0881422991902279,-0.0540736239200224,0.17998372927337475,0.1858771294355392,-0.0,0.1858773798232112,0.0
1.457979776,0.42670708124259493,-0.013212388822941491,-0.16941647308625996,1.0871634529570133,-0.04121595457509692,0.16678543305571877,0.1858771294355392,-0.0,0.1858772956865435,0.0
1.462841472,0.43116539532446996,-0.014185187806628748,-0.17014953260525534,1.0901940796964744,-0.029810828707398738,0.17145587039847124,0.1858771294355392,-0.0,0.18587724180242066,0.0
1.4679545600000001,0.4356593954291452,-0.015285951741156717,-0.16871866859948081,1.0909251741659896,-0.027554479431088585,0.19034963737904279,0.1858771294355392,-0.0,0.1858772034996371,0.0
1.472941952,0.4444078369366526,-0.016835917506123975,-0.16670073193034796,1.0948779398686252,-0.03830491293491001,0.14472006026311612,0.1858771294355392,-0.0,0.1858771788738578,0.0
1.477988992,0.4489949525971501,-0.017648280523036578,-0.16601434382944635,1.093134173779439,-0.03653752246809995,0.17111775243150193,0.1858771294355392,-0.0,0.1858771622393797,0.0
1.482923136,0.45352034304126415,-0.018585757166895357,-0.16349649085683904,1.0960170018114832,-0.03776793955413077,0.21660519715466692,0.1858771294355392,-0.0,0.18587715144878816,0.0
1.487818112,0.45807485170299544,-0.01956652769868354,-0.1600895851130879,1.0990547195122047,-0.04303508024708694,0.22896685679842796,0.1858771294355392,-0.0,0.18587714426516647,0.0
1.492941952,0.462409218793634,-0.02063207427313308,-0.1572929422439735,1.099909136892296,-0.04767626302048562,0.18740599946883504,0.1831293255090713,-0.0,0.1849385186881511,0.0
1.497934464,0.4713995255029703,-0.02239611007980143,-0.15819834326041438,1.102779813761273,-0.0468770057593771,0.1749371625206274,0.1831293255090713,-0.0,0.18433635744435947,0.0
1.50295872,0.47586954612687576,-0.02314639889678526,-0.16126711039928132,1.1067103194102825,-0.041134816389947156,0.1733641004029282,0.1831293255090713,-0.0,0.18393206161482192,0.0
1.507949184,0.4804667238695688,-0.024135122730148905,-0.15844330828828213,1.1118750790387448,-0.04393133737083535,0.08629310332053507,0.1831293255090713,-0.0,0.18366499323900534,0.0
1.51293888,0.48511111097798215,-0.024999140172156483,-0.15943610043231793,1.1164326679984324,-0.045864182035472545,-0.046804505547459935,0.1831293255090713,-0.0,0.1834868052970466,0.0
1.517934464,0.48957894527040113,-0.02598783982537475,-0.1603279056441318,1.122678289280272,-0.04385332203757184,-0.05723784878909754,0.1831293255090713,-0.0,0.1833677506097711,0.0
1.522921344,0.4987645007059492,-0.027929720516999195,-0.1573773313067104,1.117829260254677,-0.03945438137950889,0.049296744719375514,0.1831293255090713,-0.0,0.18328848411869259,0.0
1.527823744,0.5034625840278235,-0.028925961646216105,-0.1562414366724596,1.1165234295537938,-0.048471052658697236,0.06921202483906641,0.1831293255090713,-0.0,0.18323646684083875,0.0
1.532927104,0.5080481728679324,-0.02959681428809652,-0.1594340602235773,1.1115494130013341,-0.04723635175510718,0.07825508065818433,0.1831293255090713,-0.0,0.1832000147883795,0.0
1.5379403520000001,0.5125891640271917,-0.030208205375124086,-0.16223828674288931,1.1106832665827457,-0.041375842781572705,0.11917523834177678,0.1831293255090713,-0.0,0.18317638926250526,0.0
1.54295232,0.517028664559404,-0.031418858620831665,-0.1583518867350051,1.1148071108876008,-0.03941423771958351,0.15196407554250407,0.1831293255090713,0.0031364685855805,0.18316066379409388,0.0
1.547946112,0.5258413101230324,-0.03345169701207659,-0.15776121236646912,1.1164885257978012,-0.049766547224578454,0.15151618976697526,0.1831293255090713,0.0072256778366863,0.18315023066895791,0.0001962545297587241
