time,x,y,theta,vx,vy,omega,throttle,steering,throttle_filt,steering_filt
0.03971648,-0.1053494487277036,0.012305766159283861,-0.21658123542009022,1.1825225759893099,0.00972586501117699,0.47222386047971604,0.1643556505441665,-0.0,0.1643556505441665,-0.0
0.044677248,-0.10038786011794427,0.01113840220382798,-0.21397228542117475,1.188321496387133,0.00022921182187984359,0.4749232355464135,0.1643556505441665,-0.0,0.1643556505441665,0.0
0.049718399999999996,-0.09570430743163519,0.010303782947619888,-0.20908198098006814,1.189875314455399,-0.008617468395087084,0.4569836569675321,0.1643556505441665,-0.0,0.1643556505441665,0.0
0.054745728,-0.09091334624872144,0.00938555656982337,-0.207582646852698,1.1897915859573793,-0.005973953175025087,0.45046661892477124,0.1643556505441665,-0.0,0.1643556505441665,0.0
0.059699327999999996,-0.0859831250211915,0.008122259879157587,-0.2023421061409465,1.186491035219842,-0.007889393913817213,0.4322166002521106,0.1643556505441665,-0.0,0.1643556505441665,0.0
0.06467392,-0.07625614317813605,0.005950603366197084,-0.2003051969876246,1.1903096828307564,-0.012688896435330705,0.2491694447003092,0.1643556505441665,-0.0,0.1643556505441665,0.0
0.0696416,-0.07137307669474503,0.005100479542371478,-0.20251954409594042,1.1882018675542547,-0.005400119631384285,0.18378034726426454,0.1643556505441665,-0.0,0.1643556505441665,0.0
0.0747168,-0.06665693732603092,0.003983770108188517,-0.20230346781813413,1.1843010628682136,0.0015813862924507803,0.1491373868994618,0.1643556505441665,-0.0,0.1643556505441665,0.0
0.079675776,-0.06183747823557237,0.003037511186189318,-0.20320518344795246,1.182602929105482,0.008706502046171422,0.09970859404546131,0.1643556505441665,-0.0,0.1643556505441665,0.0
0.08457203199999999,-0.05688088345857018,0.002111096049374074,-0.20345019201493564,1.17990787682118,0.012114729431072805,0.09508025768626714,0.1643556505441665,-0.0,0.1643556505441665,0.0
0.089711744,-0.047238090588795724,0.00020163162930707875,-0.20454372774760543,1.1896278462851522,0.02038791313785443,0.2706912644961055,0.1643556505441665,-0.0,0.1643556505441665,0.0
0.094703232,-0.042482204131795896,-0.0006587278620859953,-0.20166405946100863,1.1875803349141063,0.01623145271405023,0.39250426412311595,0.1643556505441665,-0.0,0.1643556505441665,0.0
0.099691904,-0.03759540778257112,-0.001504816486231127,-0.20132968574968757,1.1853936959987008,0.017505574588075692,0.5034983456887191,0.1643556505441665,-0.0,0.1643556505441665,0.0
0.10474304,-0.03257203825781177,-0.0024339374260761476,-0.19945521355888474,1.185447227587489,0.013646740965016956,0.5623641238903941,0.1643556505441665,-0.0,0.1643556505441665,0.0
0.109674112,-0.027732654477008154,-0.0034757800543934723,-0.193807043500005,1.1883218468786503,0.00010452861459680245,0.528450515847238,0.1643556505441665,-0.0,0.1643556505441665,0.0
0.114614912,-0.018184548774213424,-0.005245311971385743,-0.18733610550249935,1.1932091553046005,-0.01487452991539472,0.5833987444223365,0.1643556505441665,-0.0,0.1643556505441665,0.0
0.119601536,-0.013299729345457909,-0.006327070573203885,-0.1815075302675666,1.1918155759657936,-0.016542973998331396,0.5733953013196633,0.1643556505441665,-0.0,0.1643556505441665,0.0
0.124680832,-0.008398871842213109,-0.007474472284580201,-0.1778472923620278,1.1925210006299674,-0.022760409968151603,0.5692601017952873,0.1643556505441665,-0.0,0.1643556505441665,0.0
0.12968460799999998,-0.003476326012449549,-0.008492038815210266,-0.17725810807114328,1.1961364572403,-0.028462821257803677,0.51939084473494,0.1643556505441665,-0.0,0.1643556505441665,0.0
0.134573184,0.0015334766265704637,-0.009262425011979821,-0.18092022214891834,1.1990062147140494,-0.019909525704962745,0.47697935272387276,0.1643556505441665,-0.0,0.1643556505441665,0.0
0.13967833600000001,0.011206192469307628,-0.011266806026421878,-0.1756897609730519,1.1964703040113056,-0.01229463137457419,0.3626123888155352,0.1643556505441665,-0.0,0.1643556505441665,0.0
0.14458816,0.01607332475585638,-0.012240116945455374,-0.17474283208166774,1.1937465771977211,-0.01265588760913386,0.2499663031181428,0.1643556505441665,-0.0,0.1643556505441665,0.0
0.149751424,0.021034021347989935,-0.013059739074625595,-0.1738599061989312,1.1954226607786071,-0.014893755882811215,0.25152709858329897,0.1669896990060806,-0.0,0.16526233638401028,0.0
0.15470783999999999,0.025929638703486337,-0.013985622120639035,-0.17179143602886437,1.1995127618894168,-0.011874960361155389,0.34938118107462074,0.1696393638849258,-0.0,0.16670862765987546,0.0
0.159769216,0.03078964090070443,-0.014886180190970568,-0.16896781335044864,1.2017828035731513,-0.006359691398091043,0.39774972964619604,0.1696393638849258,-0.0,0.16769753152599548,0.0
0.16468928,0.04071925515836721,-0.016625362585452986,-0.16858931641907127,1.1991488144234759,-0.004332747238689235,0.2746059723811237,0.1696393638849258,-0.0,0.16833446082487602,0.0
0.169677952,0.04567852502062244,-0.017431626248173723,-0.16785193833610457,1.1996106205149808,0.003034733839648442,0.20850022657383935,0.1696393638849258,-0.0,0.1687684430487683,0.0
0.174686848,0.050644374308011185,-0.01823005369328915,-0.1641969522098492,1.2023861326804381,0.0076208806690509535,0.1676441528362551,0.1696393638849258,-0.0,0.16905926650827136,0.0
0.179687296,0.05550792381908712,-0.019145530181615297,-0.16195511468083357,1.2037411471213861,0.01348175610997385,0.1478103700336061,0.1696393638849258,-0.0,0.16925264962606448,0.0
0.184765824,0.06037147794241899,-0.01988600542562111,-0.15954496601277945,1.2020221551771986,0.014695160388797045,0.11187324266284854,0.1723048537969589,-0.0,0.1702860299156381,0.0
0.189570944,0.06537102526128291,-0.020501964412127406,-0.16078655019395782,1.2027724223443486,0.010072430144302482,0.06973495186761873,0.1723048537969589,-0.0,0.17093274264954558,0.0
0.19467456,0.07545801086275622,-0.021761128072390962,-0.16501624333219223,1.2114224939974305,0.007100538805207873,-0.010588755960696266,0.1749863922595977,-0.0,0.17231196071676264,0.0
0.199699072,0.08030291036774738,-0.02258901410834995,-0.16526807237129937,1.2113162852659003,0.0048768846277223174,-0.04954083941848038,0.1749863922595977,-0.0,0.17320780827543952,0.0
0.204685952,0.08537063124530545,-0.023725179161870096,-0.16194214815274677,1.2119850359416293,-0.0046255114062159035,-0.10166709708834244,0.1776841729879379,-0.0,0.17469601451927044,0.0
0.2097632,0.09044408755129638,-0.024726306146016,-0.16378553330889467,1.2107914403503104,-0.008403068842276522,-0.09071548631901737,0.1776841729879379,-0.0,0.1757074559598521,0.0
0.214684032,0.10027661239161838,-0.02622719566367907,-0.1671740614583559,1.2163992194371918,-0.0028491154317526256,0.10959875116770199,0.1776841729879379,-0.0,0.17635592878696874,0.0
0.219695488,0.10522612001208122,-0.02705260522928763,-0.16584537078852613,1.2156973488400866,0.0006169842975441455,0.14256720319083926,0.1803984194993972,-0.0,0.1777065130760183,0.0
0.2246944,0.11023766092561672,-0.027820973216225415,-0.1648476551561746,1.2164812718142965,0.0033983623185081316,0.09893132187464758,0.1803984194993972,-0.0,0.17860361996419868,0.0
0.229664896,0.11526203897212017,-0.02863196123717071,-0.16597161264556526,1.217087094975283,0.003955950250577055,0.01249847531007559,0.1803984194993972,-0.0,0.1791983562248991,0.0
0.234708352,0.12035139561284545,-0.029653072980129154,-0.16267523148271223,1.2192006161891342,-0.0012009974164024265,0.018097885352416212,0.1803984194993972,-0.0,0.1796018539797089,0.0
0.23966528,0.13027425550744326,-0.031210545781189997,-0.15887417338941034,1.2272324007936335,-0.0030700009111731454,0.14184452402255318,0.1803984194993972,-0.0,0.1798650885082674,0.0
0.244564864,0.1352715859506565,-0.03202343012132839,-0.15834128134375192,1.23170303529932,-0.0070126410544735784,0.04640817882130533,0.1803984194993972,-0.0,0.18003929517432365,0.0
0.24960422399999999,0.14040069666467261,-0.032843982549645344,-0.1598001181909403,1.2327766569224,-0.009564718445387506,0.02053726664539838,0.1803984194993972,-0.0,0.1801599456249105,0.0
0.254714752,0.14549228829846103,-0.03354025597514299,-0.16478177847584252,1.2349167088707358,-0.003180576049498261,-0.03890473687794523,0.1803984194993972,-0.0,0.18024119411909936,0.0
0.259742592,0.15066587055975808,-0.03441526343580427,-0.16277101008745376,1.238988468615351,-0.003438946770569498,-0.18711779908522644,0.1803984194993972,-0.0,0.18029389438950447,0.0
0.264668288,0.16083652709505827,-0.03651371555733784,-0.1613773302806365,1.2430804234132282,0.004718078864255216,-0.21064654335158475,0.1803984194993972,-0.0,0.18032821831721768,0.0
0.26956352,0.16587986854227904,-0.037166602344926414,-0.16506162349589726,1.2440215407056776,0.009979210219546198,-0.20751642706434045,0.1831293255090713,-0.0,0.1812423562879505,0.0
0.27472422399999996,0.17095228852355993,-0.03797758331621557,-0.1638750663494264,1.241654212245014,0.01465896046176213,-0.13503034666991745,0.1831293255090713,-0.0,0.1818915622617715,0.0
0.27966144000000004,0.17612539241707,-0.03855587311036995,-0.16833813684800703,1.2453702854811888,0.031235026675744296,-0.042535241949271434,0.1831293255090713,-0.0,0.18229896922902353,0.0
0.284669312,0.18138312299585196,-0.03920800424365529,-0.17205942430128562,1.2555661894893582,0.04176759924163271,-0.05882924250329823,0.1831293255090713,-0.0,0.18257619042668188,0.0
0.2896736,0.19164562980539676,-0.04089371453017843,-0.16803902757455802,1.2673854749336488,0.013992702287730543,0.011631880042952014,0.1858771294355392,-0.0,0.18367744705806566,0.0
0.294695296,0.19694942177020092,-0.04159816256043248,-0.16912515307390308,1.2690822450278338,0.0061888487500439925,-0.009984611057530351,0.1886420100927353,0.0100801987573504,0.18533948214692889,0.0
0.29957056000000004,0.20234448755412254,-0.04222151006902029,-0.16783497807900272,1.2715799979259692,0.012144971047723208,-0.0059263788587832315,0.1886420100927353,0.0271994043141603,0.18641286185380782,0.0006169609269293609
0.304672128,0.20743377549825792,-0.043439438300646956,-0.16361751794339074,1.2750603748786777,0.01686043037802417,0.13236292212994458,0.1886420100927353,0.0391381978988647,0.18717100527533906,0.0025446139323031126
0.30956505599999995,0.2126694106680751,-0.044654018182933054,-0.16318667584791058,1.2744225024081919,0.020300097564942894,0.25346300169387137,0.1914242058992386,0.0568969920277595,0.18855837890349209,0.0055711682568968
0.31466688,0.2232143268126323,-0.04578294419656088,-0.16279196067255697,1.2726793677013613,-0.0003647838939660227,0.3061819420266656,0.1942239105701446,0.0720749720931053,0.19048534859880462,0.01011159014077689
0.3197664,0.22842955185912586,-0.04635297288999087,-0.16706073528815502,1.2817354603429736,0.008377596466973605,0.2896609761030977,0.1942239105701446,0.0839211270213127,0.19175634003507713,0.01596549447702579
0.32467878400000005,0.23371136436953174,-0.047048135844655226,-0.1656962804834503,1.286727032174925,0.01266790235024808,0.27667829953678,0.1942239105701446,0.1018096879124641,0.19256445030276625,0.022488687902300766
0.32966976000000003,0.23883677049924912,-0.048139755499745626,-0.1625683550182071,1.2862272413759996,0.0047874380526652304,0.2692164248360304,0.1942239105701446,0.116576962172985,0.19311660539392886,0.030145553011089954
0.334575744,0.2441962631448778,-0.04957451794196488,-0.15474311473465274,1.2872024859102809,-0.014256924903838371,0.3592209780492635,0.1942239105701446,0.1281084418296814,0.19347876682577098,0.03854817983970591
0.33967500799999994,0.25497982375960354,-0.051050065803482106,-0.15578571685670806,1.2962210784213863,-0.02738974896160665,0.5515532000034219,0.1942239105701446,0.1446696817874908,0.19373207913713827,0.04783852687573702
0.344676224,0.2601931083260662,-0.051815709864283625,-0.15462206848140703,1.3025732504239869,-0.01888748442791143,0.6283673771710835,0.1970413476228714,0.1555432379245758,0.1948354369037479,0.05767596061009955
0.34967462400000004,0.2655120117085399,-0.05271478248841383,-0.1514679881646579,1.30328678609288,-0.009007742759065435,0.6710555050822573,0.1970413476228714,0.1686476916074752,0.19557050517964572,0.06784659644183583
0.35468326400000005,0.27080656912588563,-0.053687529267482846,-0.15065762687956674,1.2997089094620904,-0.008394689431064866,0.6104788455404375,0.1970413476228714,0.183637797832489,0.1960616331993016,0.07836122631900293
0.359710336,0.27619134504551224,-0.0548106775675147,-0.14218131311945825,1.298823236511772,-0.022429352807607855,0.5202765935939354,0.1970413476228714,0.1931958347558975,0.19638997286241652,0.08933174326481486
0.364573056,0.28174908734024423,-0.05569421095436251,-0.13970728755137074,1.3011064595259485,-0.02332626859955173,0.5458960385630518,0.1970413476228714,0.2044326961040496,0.19660113640076046,0.10002644502570636
0.369573504,0.2923413627308938,-0.057042235845662606,-0.13557041503796263,1.3168509998774836,-0.008942812718308676,0.6246418592730488,0.1970413476228714,0.2168777585029602,0.19674788662243928,0.11106879960446218
0.374750848,0.29764645189889866,-0.057854814202820425,-0.1311801564072752,1.316380788823177,-0.007273767236457266,0.6095352285215253,0.1970413476228714,0.2249494194984436,0.1968491765257607,0.1226326006453442
0.37967398399999996,0.3030276914793067,-0.058592179737042414,-0.13017043200361922,1.312200764550738,-0.00598814311278577,0.5082203572377307,0.1970413476228714,0.2365099936723709,0.19691224882218372,0.13348438859412448
0.384563584,0.3087137151934437,-0.059275460949462906,-0.13019204404852225,1.316874502488049,-0.004290016365355304,0.43185808754124866,0.1998767256736755,0.2456580698490142,0.197878589223054,0.14421752645483574
0.389688704,0.31968922896478,-0.0608481362766178,-0.12519140331842848,1.3261203825233951,-0.004793346102272998,0.5145160847759348,0.1998767256736755,0.2523016929626465,0.19856130182877463,0.15534415394684742
0.394672,0.325150347985532,-0.061469298475860204,-0.12363921527187749,1.3263717102904478,-0.007569068866631667,0.4352588652196205,0.1998767256736755,0.2616810202598572,0.19899831158774792,0.16585590690954516
0.399697792,0.33056413478991586,-0.06213493672345392,-0.12261181190480741,1.3301644974613376,-0.010398630821090162,0.4112434487181199,0.1998767256736755,0.2680994272232055,0.1992926266867974,0.1762474354024971
0.40470950400000005,0.3359632946734203,-0.06285498380438521,-0.12363999826442651,1.33822163674673,-0.005245275615868983,0.4669424599896254,0.1998767256736755,0.272907018661499,0.19948778241357906,0.1862777652736129
0.409702272,0.3414276777192195,-0.06352861441898099,-0.11866120801997582,1.3427320519959387,-0.01175753844806084,0.46344680039754865,0.1998767256736755,0.2791264057159424,0.19961724264443406,0.19580651316201322
0.41458752,0.3529338541058005,-0.06517012657004391,-0.11286599578409806,1.3511779528567152,-0.01642493858099542,0.38578419036199274,0.1998767256736755,0.283547431230545,0.1997017519077431,0.2047401765521153
0.41958335999999996,0.3585090527403025,-0.06573044468472082,-0.1139858006349268,1.3583325219471558,-0.012014875242173536,0.34988718959626863,0.1998767256736755,0.2868683338165283,0.1997600279703295,0.21342752387952732
0.42468083199999995,0.3640243673747639,-0.06654045917513375,-0.10966732203295049,1.3652955246037257,-0.015301998385286526,0.37414306860403107,0.2027302533388137,0.2912577390670776,0.20076940401363202,0.22176346533200375
0.42967104,0.3695945256684866,-0.06714486096399724,-0.10789192829116523,1.362060305736625,-0.010884445857731774,0.38922032339101703,0.2027302533388137,0.2942858934402466,0.20142174041291977,0.22946575103721398
0.434599296,0.37514233597082935,-0.06767417161142565,-0.10868191568715879,1.3618492597085565,-0.00871560008838312,0.2829421372946626,0.2027302533388137,0.2965009212493896,0.2018516528581274,0.23659663069857576
0.43958847999999995,0.38664379109739794,-0.06903360857471946,-0.10679225615659327,1.3683674829879535,-0.002292768869461248,0.1793133480757473,0.2027302533388137,0.2993132174015045,0.20214388615550288,0.24331127207872358
0.44459225599999996,0.3922541608177102,-0.0696426148181264,-0.10738581916251455,1.373572007283826,0.003956810779158222,0.17747874861096166,0.2027302533388137,0.3015174269676208,0.20233948949143876,0.24959200017575212
0.449700224,0.39810623668803163,-0.07038022133544898,-0.10456958926547699,1.3793695958150491,0.0039650893667764935,0.13272233402801292,0.2027302533388137,0.3027843832969665,0.20247255677330198,0.25555212763566415
0.45471039999999996,0.40366010284825954,-0.07093924460544167,-0.10205325848613889,1.3820183847084027,0.002287821585994615,0.1957334799308987,0.2027302533388137,0.3046484887599945,0.20255863044982259,0.2609194056885631
0.45973593599999996,0.40931103497781596,-0.07138715415962223,-0.10579775587221896,1.3859315140381174,0.008182988379276654,0.23906136847984866,0.2027302533388137,0.3053799271583557,0.20261613025029251,0.2658870612314946
0.46457484800000004,0.41511384925113726,-0.07179013749628983,-0.10614332804633264,1.3904831104616329,0.008798402685926649,0.19691284526433553,0.2027302533388137,0.3057786226272583,0.20265294568912734,0.2702482873896845
0.46969024000000004,0.42677934666415085,-0.073061194910467,-0.10311292374276171,1.4022943078841386,0.002265923644092433,0.12599788907927476,0.2027302533388137,0.305911511182785,0.20267930961797698,0.2744270632602091
0.47457753599999997,0.43256277411542554,-0.0736777104037706,-0.10228015805332191,1.4066711114763235,-0.0040966922147727906,0.07037943381336217,0.2027302533388137,0.3061107695102691,0.202695908087515,0.2779935183275011
0.479692672,0.4385068193567365,-0.0744280385481141,-0.09635151047582102,1.4069507915617456,-0.017207351035510726,0.08597944597896195,0.2027302533388137,0.3061107695102691,0.2027076201296048,0.2813348269728279
0.48458099200000004,0.4443127708906883,-0.07503357592571254,-0.09709129725959187,1.4056170943673234,-0.01765517424635358,0.10328469408844132,0.2027302533388137,0.3061107695102691,0.20271499602088747,0.2841622737362786
0.48957862399999996,0.45003850458029954,-0.07558114821669623,-0.09832551632224273,1.4084669742797373,-0.011458472336798461,0.09773112671696421,0.2056021392345428,0.3061107695102691,0.20367692130843057,0.28672916972074275
0.494736768,0.4616861280689682,-0.07694343492418132,-0.10141585057082914,1.4109573917402558,0.004021009176386144,0.03839610912868907,0.2056021392345428,0.3061107695102691,0.20433895806138178,0.2890717523343325
0.49960844800000004,0.4675684017878845,-0.07756185699273324,-0.09875532066900394,1.414895088917035,0.002088738353820088,-0.003008564852356949,0.2056021392345428,0.3061107695102691,0.20474921235855945,0.29101822817845135
0.504597888,0.4734723432455297,-0.0779077486069739,-0.10121401352293447,1.4206171414412103,0.007208997773927673,-0.037050905870055086,0.2084925919771194,0.3061107695102691,0.20599437022549463,0.2927846343215335
0.509568384,0.47944872153172846,-0.07849777490388014,-0.10125900296444712,1.4288083280303427,0.010737201577000465,-0.01941439983698999,0.2084925919771194,0.3061107695102691,0.20682219697373222,0.29433868207771036
0.514599808,0.49121913905901443,-0.07956775237071118,-0.10229748519868487,1.436778515384357,0.011300237798459041,0.031112586749805035,0.2114018201828003,0.3061107695102691,0.20835833204873636,0.2957284721206733
0.51968704,0.49729635100438235,-0.0801801990498032,-0.09957566402326723,1.441335769868878,0.0012353442919745652,0.02638321807097116,0.2114018201828003,0.3061107695102691,0.20939052739721836,0.29696785009020127
0.5247010559999999,0.5033629375261139,-0.08077733559045322,-0.09933149066370994,1.4452241763043698,0.0016487597787482934,-0.00682849176549738,0.2143300473690033,0.3061107695102691,0.21104164954194163,0.29804360202732755
0.529578368,0.509203710135564,-0.08134334351382093,-0.09750750256487173,1.4501070966256662,-0.0017941750628375564,0.024385676322606752,0.2143300473690033,0.3061107695102691,0.2121108856874551,0.2989669165614722
0.534576512,0.5152780644892766,-0.08202932941528786,-0.09968876028938212,1.453827788259589,0.00044342503656668675,0.03179117967103028,0.2172774821519851,0.3061107695102691,0.21383244522876255,0.29980481749254245
