time,x,y,theta,vx,vy,omega,throttle,steering,throttle_filt,steering_filt
0.034124416,0.4539314661708036,-0.19609911703878885,-0.38665535873977586,0.6692899894669903,0.06078590377233738,1.474579697620007,0.1488674730062484,1.0,0.1488674730062484,1.0
0.03904576,0.4566504678053654,-0.19701189479033443,-0.37750638126738867,0.6717179108278808,0.057311026579719,1.4395993480893834,0.1488674730062484,1.0,0.1488674730062484,1.0
0.043934848,0.4619632144367172,-0.19850246111791753,-0.36699755390521815,0.6720538628564541,0.05809579991040803,1.4752649256908177,0.1488674730062484,1.0,0.1488674730062484,1.0
0.049444736,0.46466949070992497,-0.19913050249886874,-0.36046251597479806,0.6680316043923499,0.0644913450768572,1.5288908012019198,0.1463368386030197,1.0,0.14793790553086592,1.0
0.053969279999999994,0.46740652984351744,-0.1999923449520322,-0.3533310602194817,0.6655720046435762,0.06913762115937988,1.5880722329149324,0.1463368386030197,1.0,0.1474549656800669,1.0
0.059202175999999995,0.4701145444533187,-0.20074830775595784,-0.3486889635892183,0.6659317056491174,0.0684701420692012,1.5838294732432077,0.1463368386030197,1.0,0.14706489616613544,1.0
0.06405311999999999,0.4728081336495222,-0.20144876812408058,-0.34167147744792814,0.6691693304065073,0.06528486505207594,1.6008332767134035,0.1463368386030197,1.0,0.14682944506830536,1.0
0.068945536,0.47822199773116403,-0.20253772384020483,-0.3288616837815539,0.6721715070976907,0.06526988808626015,1.5784482871819188,0.1463368386030197,1.0,0.14666877601814088,1.0
0.074077312,0.4809284578849551,-0.2032451604143002,-0.3193368096853044,0.6709760235105875,0.06984218774801651,1.592975992452696,0.1463368386030197,1.0,0.1465552141207795,1.0
0.078981248,0.48375883527882096,-0.20387880631894195,-0.3126929036565578,0.6690191731174084,0.06962537306470665,1.605970776323569,0.1463368386030197,1.0,0.14648382081657543,1.0
0.084041088,0.48654124767894913,-0.20463262400119184,-0.30628411366191344,0.6700031423452353,0.06477652382987535,1.5725284230705434,0.1463368386030197,1.0,0.14643424038434624,1.0
0.089046656,0.48931815483881486,-0.2051681404295291,-0.29774733828365196,0.6725646443786217,0.06404988771340545,1.5487879631421777,0.1463368386030197,1.0,0.14640173696836284,1.0
0.094058112,0.4947114270940743,-0.20602775485237204,-0.28748246902425834,0.6688336136038282,0.07113163149213256,1.4817696032159942,0.1463368386030197,1.0,0.14638005461487022,1.0
0.09905164799999999,0.4974796199169793,-0.20657813064615163,-0.28028800248874663,0.6681110478895871,0.0712306877876449,1.4956884900926775,0.1463368386030197,1.0,0.14636566790080674,1.0
0.10394048,0.500273673288857,-0.20714257863389313,-0.2745180928399691,0.6708898843038597,0.06426086000250349,1.499515941028882,0.1463368386030197,1.0,0.14635627179456948,1.0
0.1090528,0.5030504745384209,-0.20752681620936264,-0.2716943190898782,0.6752379162834921,0.05967304758023388,1.4688922883532498,0.1463368386030197,1.0,0.14634964854831456,1.0
0.114054016,0.5058401403372821,-0.20806787777467764,-0.264700149213958,0.6767270067864358,0.06062160019852736,1.455381693009992,0.1463368386030197,1.0,0.14634537752809004,1.0
0.119036032,0.5114281659660677,-0.20909604034164692,-0.2516996306344703,0.6749169876291118,0.058218059991683994,1.2853097493499075,0.1463368386030197,1.0,0.14634254145733516,1.0
0.123939456,0.514206251162591,-0.20959734898057952,-0.24322539988758862,0.6730973916983385,0.05583777979913926,1.2423613811944443,0.1463368386030197,1.0,0.1463406772231539,1.0
0.128935296,0.5170106930887425,-0.20992306802390664,-0.2382964975980526,0.6721412314829875,0.060164327166266865,1.2511023272751711,0.1463368386030197,1.0,0.14633939874768648,1.0
0.134079104,0.5197890018207737,-0.2103532089681956,-0.23108653634721676,0.6725654511009572,0.05767248842923644,1.2174896001619644,0.1463368386030197,1.0,0.14633852082151194,1.0
0.139209856,0.5225106285015433,-0.21083231093723112,-0.22853717113784633,0.6748159758611993,0.05753344258286081,1.139832910984803,0.1463368386030197,1.0,0.14633794541845238,1.0
0.14408256,0.5281169296468773,-0.21137644698065267,-0.22329129005263226,0.6746977721925832,0.06631569692469423,0.9502728023064929,0.1463368386030197,1.0,0.1463375858728533,1.0
0.149027456,0.5308926025590684,-0.21195165461859278,-0.21763198528032035,0.6735192499205377,0.07466927021438816,0.9699574168778128,0.1463368386030197,1.0,0.14633733952807923,1.0
0.154035072,0.533842798707434,-0.21239096812590957,-0.21389606670110517,0.673650378650646,0.07851040959687393,1.004363536239679,0.1463368386030197,1.0,0.14633717229872303,1.0
0.15903936,0.536637177314942,-0.21257847353505457,-0.21089499346400586,0.6766403668506944,0.07489624322267155,1.0302706437915186,0.1463368386030197,1.0,0.14633706097142943,1.0
0.164026752,0.5393994951968485,-0.2126407725436365,-0.20998995724774971,0.6795809547486623,0.08177052607587712,1.089194014932653,0.1463368386030197,1.0,0.14633698703553424,1.0
0.168942208,0.5449540595208596,-0.21298057075015694,-0.20079776460232956,0.6765532295624996,0.09145516909149842,1.239178622858647,0.1463368386030197,1.0,0.14633693839463463,1.0
0.174042496,0.5479466997924713,-0.21344357317228846,-0.19181059390553035,0.6804052978151892,0.08313999044239695,1.272467912731637,0.1463368386030197,1.0,0.14633690446356956,1.0
0.178923136,0.5508287862848175,-0.21348284527774972,-0.18550501486108928,0.6849560812295732,0.07348686796284919,1.2990618025216347,0.1463368386030197,1.0,0.14633688303412729,1.0
0.18412531199999999,0.5536584258030128,-0.21373751690238824,-0.17967675513067327,0.6892290889639278,0.06946907282884217,1.3413920669662651,0.1463368386030197,1.0,0.14633686762489784,1.0
0.189049216,0.5565581559604011,-0.21387569962748432,-0.1756764797966346,0.6891332682638024,0.0695632938560668,1.3611298600785715,0.1463368386030197,1.0,0.14633685809816838,1.0
0.193926272,0.562297302261889,-0.21442297888207368,-0.15938679174729042,0.6841897238672467,0.06691844389805311,1.3102739810894377,0.1463368386030197,1.0,0.14633685175957292,1.0
0.199109248,0.5651410318929778,-0.21453049318525239,-0.15549794939235895,0.6850205626853814,0.069671356995325,1.2672022075091331,0.1463368386030197,1.0,0.14633684721356627,1.0
0.204051584,0.5680495457718571,-0.21492406747254494,-0.15021223989548638,0.6849304767949851,0.06838797571453509,1.212789617456367,0.1463368386030197,1.0,0.1463368443764853,1.0
0.20898496,0.5708064721492746,-0.21487440169441568,-0.14771145563207178,0.6846094841965195,0.07232552610340277,1.202816658251287,0.1463368386030197,1.0,0.1463368424776402,1.0
0.214033792,0.5737053711252724,-0.2148262541361372,-0.14452685856035608,0.6864180889262793,0.07569999806095422,1.207671753029816,0.1463368386030197,1.0,0.14633684117348633,1.0
0.21893312,0.5794070362791285,-0.21509904912384076,-0.1321862209026845,0.6882417374980913,0.07855629238716474,1.114308932923618,0.1463368386030197,1.0,0.14633684033391572,1.0
0.224035456,0.5823773288489726,-0.2151774895013551,-0.1289694828790493,0.693303939108655,0.07509533240783671,1.1125255184330438,0.1463368386030197,1.0,0.1463368397451415,1.0
0.22904,0.585320482824322,-0.2151730669720363,-0.12504019011384315,0.6938482538735017,0.07466763867917502,1.0929871372912354,0.1463368386030197,0.9984790682792664,0.14633683936408826,1.0
0.233945472,0.588127158052247,-0.21523927513802613,-0.12005485955188888,0.6949232935122276,0.07575215257718611,1.0558867245267787,0.1463368386030197,0.9950329065322876,0.14633683911519488,0.999906654144688
0.23904704,0.5911301004875563,-0.21530821669403455,-0.11286278032502306,0.6957817763729898,0.07594783016733447,0.9985051226323391,0.1463368386030197,0.9914479851722716,0.14633683894100177,0.9995607229000797
0.244044416,0.5969731901411642,-0.21526316187157007,-0.10427863455510078,0.6932560890239885,0.07396050243125017,0.9198787198799974,0.1463368386030197,0.98781818151474,0.1463368388284002,0.9989074712390478
0.249056384,0.5998266710649012,-0.2152642680072072,-0.09944985175016718,0.6929048646512324,0.07186965925281558,0.9352482975118359,0.1463368386030197,0.9841784834861756,0.14633683875309356,0.9979426626185636
0.25407833599999996,0.602785760584444,-0.21518124318050608,-0.09828333866275862,0.6924613662299867,0.07556449072093326,1.0107621909985764,0.1463368386030197,0.9803099632263184,0.1463368387028493,0.9966789945047025
0.259053696,0.6056686528732038,-0.21515221145164132,-0.09716540305948129,0.6889422628658612,0.08130761236268547,1.0467283501837077,0.1463368386030197,0.976590633392334,0.14633683866973676,0.9951429593659061
0.26406105599999996,0.6084482206688923,-0.2151785919134778,-0.09614578089114012,0.6885449477719832,0.08183349898531765,1.0108010723312837,0.1463368386030197,0.9725683927536012,0.146336838647465,0.9933457630596776
0.26905024,0.6143683134996814,-0.21492457400101134,-0.08737830448203532,0.6931376833266092,0.08102743631183047,1.100840324566042,0.1463368386030197,0.9685404300689696,0.14633683863268193,0.991310810216712
0.27404019199999996,0.6171155098626905,-0.2147664988619116,-0.08090025049044947,0.696422397555108,0.07991781777620101,1.1639620872087513,0.1463368386030197,0.9644318222999572,0.14633683862281438,0.9890517345178685
0.27905011199999996,0.6201219451858826,-0.21486514069712787,-0.07154186582203437,0.6997124407572624,0.07524840983263129,1.2567594360772025,0.1463368386030197,0.9601085782051086,0.14633683861620306,0.9865750442753458
0.284069504,0.623089556131213,-0.21467117177426512,-0.06542547584469371,0.703528862897328,0.06883362096090591,1.3165987556314045,0.1463368386030197,0.9557352662086488,0.14633683861179156,0.9838901978142744
0.289049472,0.6260563681125452,-0.21448220585178782,-0.06324117665301365,0.7090801139538111,0.06465036470480401,1.3207257665363012,0.1463368386030197,0.9513131976127625,0.1463368386088793,0.9810373880131638
0.29406476800000003,0.6319900282182839,-0.21444330933213931,-0.048199139127291346,0.7069783682065411,0.07252925265473757,1.3896818726028106,0.1463368386030197,0.9467884302139282,0.14633683860692012,0.9779902304445499
0.299062144,0.6350371773604843,-0.21436798045474534,-0.04283732490391934,0.7073659262645474,0.0686397142071406,1.3406393434725385,0.1463368386030197,0.94235098361969,0.14633683860562066,0.974787592093437
0.30404390400000003,0.6379653918148492,-0.21417346416494754,-0.03740821838617592,0.7091671114368765,0.06860736833614163,1.2909208049104168,0.1463368386030197,0.9366560578346252,0.14633683860475682,0.9714509198312709
0.309102208,0.6408310155751873,-0.21373247639838205,-0.035214575879384924,0.7076338955664591,0.07472847823039909,1.3227674891233494,0.1463368386030197,0.9328061938285828,0.14633683860417102,0.967854891656936
0.31406707199999995,0.6437767436251481,-0.21356486685589685,-0.029319636637212376,0.7040108249346334,0.0760535689898377,1.3654744668778849,0.1463368386030197,0.928054928779602,0.14633683860378993,0.9642199952893665
0.31903961599999997,0.6497084719503745,-0.21315974584826286,-0.017483845739276305,0.7060456510962055,0.06613292937836449,1.2753718402804677,0.1463368386030197,0.9219988584518432,0.14633683860353458,0.9604727307092196
0.32409433600000004,0.6526172592139675,-0.21286535666392986,-0.01206579163753485,0.7094365312374975,0.06371181602017725,1.2691132729863028,0.1463368386030197,0.9179919958114624,0.14633683860336108,0.9564728661165831
0.329045888,0.6555897252230264,-0.21271528065053405,-0.006567067499455348,0.708159963114253,0.06955295688080426,1.309188970301369,0.1463368386030197,0.9125930666923524,0.1463368386032484,0.9524712646883084
0.334052224,0.6584964874676434,-0.2124453199014019,-0.0008461752337707296,0.7084893815837615,0.07071643899290958,1.2969562410586786,0.1463368386030197,0.9060574173927308,0.14633683860317206,0.9483103710225798
0.33907648,0.6615469599181616,-0.2123235148670907,0.00815422292045831,0.7125842240327613,0.06712467477696929,1.243674767528686,0.1463368386030197,0.9015274047851562,0.14633683860312102,0.9439336529887621
0.34404159999999995,0.667391111048585,-0.21137735168689992,0.015055437105294445,0.7134802723371162,0.07106029965349125,1.1331579033628467,0.1463368386030197,0.8956691026687622,0.14633683860308747,0.9395158466392982
0.349035136,0.6704149881157061,-0.2110475151562531,0.021034153274330336,0.71682109618151,0.07000106373452558,1.0661557924373257,0.1463368386030197,0.8888375759124756,0.1463368386030649,0.9349489999098962
0.35404095999999996,0.6734445607533273,-0.21072318974659207,0.026351782312612926,0.7165870690158599,0.06949291709734656,1.0367870998298938,0.1463368386030197,0.8838208913803101,0.1463368386030498,0.9301758414699459
0.359060096,0.6763329493654947,-0.21033261851996699,0.02800161841449622,0.7169295593039003,0.06880348131137459,0.9954698043918163,0.1463368386030197,0.8779053092002869,0.14633683860303973,0.9252929438365616
0.36404928000000003,0.679306081238216,-0.2100566592437364,0.03327542328127553,0.7174182900315084,0.06960722625956031,0.9855954280346367,0.1463368386030197,0.8706178069114685,0.14633683860303306,0.9203338855539368
0.36908991999999996,0.68525607182375,-0.209176452449114,0.03737155414244864,0.7161327500114079,0.07890314103502494,1.1134843522327988,0.1463368386030197,0.8655750155448914,0.14633683860302857,0.9151357506875801
0.37407116799999995,0.6883137328968829,-0.20877489458822554,0.04172628237651832,0.7161852094123591,0.0885216208176136,1.1728351032414375,0.1463368386030197,0.8592883944511414,0.14633683860302563,0.9099276723073376
0.37907648000000005,0.6911837593018926,-0.20819945838691112,0.04589939196047155,0.7129434133823267,0.09159155628298236,1.2095156097540458,0.1463368386030197,0.8515985012054443,0.14633683860302366,0.9046022180644658
0.384034176,0.6942164319657504,-0.20780076044774445,0.052659827854038,0.714346626369635,0.08109446624801828,1.2453706993090192,0.1463368386030197,0.8461831212043762,0.14633683860302235,0.8991411141643749
0.389032064,0.6971342348962166,-0.2070947802326855,0.05665730699542593,0.7176923833811114,0.07654345884496032,1.2337342493821506,0.1463368386030197,0.8395432233810425,0.14633683860302146,0.8935651829550538
0.39405836800000005,0.7030320523423306,-0.2061689029043036,0.07454957326510492,0.7218963731711284,0.0833636440532761,1.443197958595868,0.1463368386030197,0.8326865434646606,0.14633683860302088,0.8878580892178147
0.399038592,0.7060444189571023,-0.20584044146696812,0.08034627050242182,0.7188997538592136,0.08933502129851423,1.5466387221357634,0.1463368386030197,0.8253588080406189,0.1463368386030205,0.8820884519861933
0.40403264000000005,0.7090706471270798,-0.2052823278223895,0.08487919552673251,0.7197929428798592,0.08032746161340204,1.5869216994173805,0.1463368386030197,0.8179474472999573,0.14633683860302021,0.8761624757079236
0.40910912,0.7120661511088981,-0.2044576303570386,0.09055640691136801,0.722175195356522,0.07270813177248389,1.5979084271293607,0.1463368386030197,0.8104348182678223,0.14633683860302005,0.8699842014747176
0.414043264,0.7149655804534572,-0.2035567714160395,0.09276238210201448,0.7181403061462396,0.08333834171999667,1.6035549041555242,0.1463368386030197,0.802555501461029,0.14633683860301994,0.8638262604209832
0.41906111999999995,0.720836585973423,-0.20248020188168853,0.11038787643198233,0.7111571919574605,0.08003382533891182,1.4287741466415453,0.1463368386030197,0.7945640683174133,0.14633683860301985,0.8574071622840349
0.42397299200000005,0.7237964647229301,-0.2020476551655701,0.11901265162957131,0.7121877569219929,0.07040721919681169,1.4365220866603152,0.1463368386030197,0.7866533398628235,0.1463368386030198,0.8509547421780448
0.42893836799999996,0.7265410038067404,-0.2012408227517579,0.12501435459694044,0.7156963941267366,0.06163478723229578,1.465120433002818,0.1463368386030197,0.778403103351593,0.14633683860301977,0.8442829781818759
0.434056576,0.7294596881195565,-0.20061173766492438,0.13077804221585954,0.7167796546141234,0.05810225174876877,1.4425999922775499,0.1463368386030197,0.7699716091156006,0.14633683860301974,0.8372354951817222
0.439063168,0.7323947182114843,-0.1999178806943698,0.13648158875936112,0.7174530998084889,0.06268944257304006,1.3646438009218953,0.1463368386030197,0.7619279026985168,0.14633683860301971,0.8301680733972521
0.44410304,0.7383078925613569,-0.1984766103795533,0.14433636977120656,0.7239972017219346,0.0751047848673276,1.1067512369351702,0.1463368386030197,0.7535170912742615,0.14633683860301971,0.8229336172777277
0.448938112,0.7413093187576857,-0.19796928024473123,0.1525704316368941,0.7231316750789687,0.07536873546112736,1.0321298853110472,0.1463368386030197,0.7452694773674011,0.14633683860301971,0.815870819859507
0.453944704,0.7442886801486386,-0.1972414233124378,0.15716840873960702,0.722299868631665,0.0707210960393769,0.9896790021770766,0.1463368386030197,0.7369850873947144,0.14633683860301971,0.8084542618778222
0.45908185599999995,0.7471918651060238,-0.19620432466048077,0.1583890710092728,0.7184169699468365,0.07697468707055703,0.9811520484018911,0.1463368386030197,0.7291079759597778,0.14633683860301971,0.8007250173919566
0.46405491200000004,0.7499723982849883,-0.1952381617163576,0.1604687026204452,0.7156232479181035,0.0904173183799311,0.9855316518574916,0.1463368386030197,0.7209068536758423,0.14633683860301971,0.793171886361517
0.469089408,0.7558575478686121,-0.19379902143602604,0.1679686673299816,0.7129674302535707,0.09103301204081676,1.0572134451918664,0.1463368386030197,0.7128854393959045,0.14633683860301971,0.7854728620345865
0.474116224,0.7585253176136505,-0.1927194229127375,0.17067096659149783,0.7149182210638539,0.08491692704108678,1.0569967854623634,0.1463368386030197,0.7052547335624695,0.14633683860301971,0.7777371674677149
0.47907904,0.7614574383199054,-0.19184995461058396,0.17584213362057444,0.716252384220417,0.0846193500867659,1.1473357253970073,0.1463368386030197,0.6959364414215088,0.14633683860301971,0.7700877325255435
0.484046208,0.7643714582199138,-0.19106313134068115,0.18135621306200456,0.7162230120551119,0.0874610009762216,1.2537352818513323,0.1463368386030197,0.6899054050445557,0.14633683860301971,0.762329870286257
0.488938624,0.7672258513519774,-0.19019412317443604,0.1869964712106933,0.722987188690231,0.08002448005300064,1.3242602534969563,0.1463368386030197,0.6824321150779724,0.14633683860301971,0.7547514999351779
0.49405094400000005,0.772957284811657,-0.18832055416688998,0.19961260304654438,0.727278517463051,0.07246186039925887,1.3967343021438168,0.1463368386030197,0.674282968044281,0.14633683860301971,0.7468731685718122
0.49904550400000003,0.7759806780129653,-0.18745998939407255,0.20701755041262615,0.7294202784231177,0.07110299590361953,1.429677669155826,0.1463368386030197,0.6691151857376099,0.14633683860301971,0.7391549885888792
0.504049536,0.7789732809207852,-0.1866312247941964,0.21371246946794464,0.7286471986617774,0.0686040128855831,1.4858128601868785,0.1463368386030197,0.6629561185836792,0.14633683860301971,0.7315845327878245
0.509040768,0.7818242277712836,-0.1857104625988759,0.22007121338841706,0.7319385118982173,0.0681660107518556,1.5134594828157313,0.1463368386030197,0.6573017239570618,0.14633683860301971,0.7241876972325758
0.514083712,0.7847487580402371,-0.18464724039886243,0.2246727943535456,0.7326399697072938,0.07012857366267777,1.5091255653001048,0.1488674730062484,0.6519239544868469,0.14718762844168343,0.7168891245870761
0.519084928,0.790472511408437,-0.1827470504238579,0.23450821890533735,0.7271031460250883,0.07626792136145825,1.526984112708083,0.1488674730062484,0.6469107866287231,0.1477477128092711,0.7098397872486326
0.52405312,0.7934782975739167,-0.18165620504724192,0.2430586747999275,0.7277753770490748,0.0716236698039834,1.4396487570101921,0.1488674730062484,0.6424278020858765,0.1481185917194405,0.7030430383917399
0.5290305279999999,0.7962115677348094,-0.1806149501806903,0.25033966437560906,0.730298761194799,0.07037957866584667,1.3661750503038608,0.1488674730062484,0.638570249080658,0.14836709089997435,0.6964640765084612
0.5340593920000001,0.7990968841934408,-0.1796370131773963,0.25674693699168216,0.7343774272276666,0.07452937312292125,1.3565284393555301,0.1488674730062484,0.6351302266120911,0.14853484780400675,0.6900836146057675
